Tiempo(s),EMG(V)
0.0,2.547154
0.001,2.552319
0.002,2.550382
0.003,2.540052
0.004,2.519715
0.005,2.491954
0.006,2.462256
0.007,2.434817
0.008,2.412543
0.009,2.402536
0.01,2.403828
0.011,2.416094
0.012,2.435785
0.013,2.462579
0.014,2.488726
0.015,2.513905
0.016,2.534242
0.017,2.548768
0.018,2.555547
0.019,2.555224
0.02,2.543926
0.021,2.523266
0.022,2.49615
0.023,2.467743
0.024,2.442887
0.025,2.42481
0.026,2.417708
0.027,2.420614
0.028,2.431912
0.029,2.449989
0.03,2.470972
0.031,2.49034
0.032,2.507126
0.033,2.519715
0.034,2.527463
0.035,2.528754
0.036,2.524235
0.037,2.511322
0.038,2.491631
0.039,2.468066
0.04,2.444824
0.041,2.427715
0.042,2.418677
0.043,2.419968
0.044,2.430943
0.045,2.447729
0.046,2.469035
0.047,2.491954
0.048,2.512936
0.049,2.529077
0.05,2.540375
0.051,2.543926
0.052,2.541021
0.053,2.5294
0.054,2.511322
0.055,2.483884
0.056,2.454831
0.057,2.427392
0.058,2.407378
0.059,2.398017
0.06,2.399308
0.061,2.410607
0.062,2.427715
0.063,2.449343
0.064,2.47194
0.065,2.491954
0.066,2.50874
0.067,2.51907
0.068,2.522298
0.069,2.517456
0.07,2.505835
0.071,2.484529
0.072,2.458059
0.073,2.431266
0.074,2.40641
0.075,2.390592
0.076,2.385428
0.077,2.392529
0.078,2.408024
0.079,2.429975
0.08,2.456445
0.081,2.480979
0.082,2.503575
0.083,2.51907
0.084,2.529722
0.085,2.533596
0.086,2.528431
0.087,2.515519
0.088,2.492922
0.089,2.465161
0.09,2.439336
0.091,2.416094
0.092,2.403828
0.093,2.401891
0.094,2.411898
0.095,2.430621
0.096,2.455477
0.097,2.48227
0.098,2.50648
0.099,2.527463
0.1,2.542312
0.101,2.551351
0.102,2.552319
0.103,2.544249
0.104,2.52714
0.105,2.501638
0.106,2.473231
0.107,2.446115
0.108,2.425778
0.109,2.413835
0.11,2.413512
0.111,2.422873
0.112,2.439336
0.113,2.46161
0.114,2.484207
0.115,2.506803
0.116,2.525849
0.117,2.538115
0.118,2.544894
0.119,2.545217
0.12,2.536824
0.121,2.518424
0.122,2.495505
0.123,2.471617
0.124,2.449989
0.125,2.435785
0.126,2.432235
0.127,2.438368
0.128,2.451926
0.129,2.47194
0.13,2.493245
0.131,2.515519
0.132,2.533596
0.133,2.5478
0.134,2.555547
0.135,2.557161
0.136,2.551996
0.137,2.537147
0.138,2.514873
0.139,2.490663
0.14,2.466775
0.141,2.448375
0.142,2.439982
0.143,2.442564
0.144,2.455154
0.145,2.475491
0.146,2.499379
0.147,2.523912
0.148,2.544894
0.149,2.562003
0.15,2.572333
0.151,2.575561
0.152,2.571687
0.153,2.559421
0.154,2.537147
0.155,2.509386
0.156,2.480333
0.157,2.453217
0.158,2.434171
0.159,2.425778
0.16,2.428684
0.161,2.443856
0.162,2.467743
0.163,2.494859
0.164,2.522944
0.165,2.548123
0.166,2.568459
0.167,2.58234
0.168,2.589119
0.169,2.587828
0.17,2.577821
0.171,2.557161
0.172,2.530691
0.173,2.502929
0.174,2.478073
0.175,2.460319
0.176,2.45354
0.177,2.457091
0.178,2.468389
0.179,2.486466
0.18,2.506158
0.181,2.525849
0.182,2.542312
0.183,2.555547
0.184,2.562649
0.185,2.564908
0.186,2.559744
0.187,2.546508
0.188,2.526172
0.189,2.503898
0.19,2.48227
0.191,2.467098
0.192,2.461933
0.193,2.467098
0.194,2.481947
0.195,2.505189
0.196,2.531659
0.197,2.558452
0.198,2.582017
0.199,2.597835
0.2,2.607196
0.201,2.606873
0.202,2.596866
0.203,2.578466
0.204,2.550705
0.205,2.515842
0.206,2.480656
0.207,2.448052
0.208,2.426101
0.209,2.416417
0.21,2.420614
0.211,2.437077
0.212,2.464193
0.213,2.496473
0.214,2.530045
0.215,2.560066
0.216,2.583954
0.217,2.60074
0.218,2.609133
0.219,2.609133
0.22,2.598158
0.221,2.574916
0.222,2.546186
0.223,2.513582
0.224,2.483884
0.225,2.460642
0.226,2.449343
0.227,2.447407
0.228,2.456445
0.229,2.472908
0.23,2.493568
0.231,2.514551
0.232,2.534242
0.233,2.549737
0.234,2.563294
0.235,2.570396
0.236,2.571365
0.237,2.562649
0.238,2.545217
0.239,2.522944
0.24,2.498733
0.241,2.479042
0.242,2.466129
0.243,2.462579
0.244,2.469035
0.245,2.481947
0.246,2.498733
0.247,2.519393
0.248,2.536501
0.249,2.550705
0.25,2.560066
0.251,2.564263
0.252,2.56394
0.253,2.554579
0.254,2.538438
0.255,2.514228
0.256,2.488726
0.257,2.465161
0.258,2.449989
0.259,2.444501
0.26,2.450957
0.261,2.465484
0.262,2.486466
0.263,2.510677
0.264,2.535856
0.265,2.556193
0.266,2.570396
0.267,2.578789
0.268,2.578789
0.269,2.571042
0.27,2.552965
0.271,2.528108
0.272,2.496473
0.273,2.466129
0.274,2.439659
0.275,2.42255
0.276,2.417385
0.277,2.425133
0.278,2.442564
0.279,2.466775
0.28,2.493568
0.281,2.520038
0.282,2.542958
0.283,2.558775
0.284,2.568782
0.285,2.570073
0.286,2.562972
0.287,2.544572
0.288,2.518424
0.289,2.487757
0.29,2.456122
0.291,2.429652
0.292,2.413512
0.293,2.408024
0.294,2.414157
0.295,2.428361
0.296,2.449343
0.297,2.471617
0.298,2.493891
0.299,2.512291
0.3,2.526817
0.301,2.534887
0.302,2.536501
0.303,2.5294
0.304,2.513259
0.305,2.490663
0.306,2.465807
0.307,2.441273
0.308,2.423196
0.309,2.41448
0.31,2.41674
0.311,2.428038
0.312,2.44547
0.313,2.467743
0.314,2.490663
0.315,2.511968
0.316,2.52714
0.317,2.536824
0.318,2.53973
0.319,2.534242
0.32,2.520684
0.321,2.499379
0.322,2.472263
0.323,2.444824
0.324,2.421582
0.325,2.407701
0.326,2.403505
0.327,2.411575
0.328,2.427715
0.329,2.449666
0.33,2.4742
0.331,2.498087
0.332,2.518101
0.333,2.533273
0.334,2.542312
0.335,2.544894
0.336,2.539407
0.337,2.523912
0.338,2.50067
0.339,2.473231
0.34,2.448375
0.341,2.426101
0.342,2.413512
0.343,2.411898
0.344,2.420291
0.345,2.438368
0.346,2.459028
0.347,2.482915
0.348,2.506158
0.349,2.525849
0.35,2.538761
0.351,2.54554
0.352,2.542958
0.353,2.533919
0.354,2.514228
0.355,2.489049
0.356,2.46161
0.357,2.4374
0.358,2.419322
0.359,2.411898
0.36,2.415449
0.361,2.427715
0.362,2.447084
0.363,2.470326
0.364,2.493891
0.365,2.514551
0.366,2.531337
0.367,2.541344
0.368,2.545217
0.369,2.54328
0.37,2.531337
0.371,2.510677
0.372,2.485498
0.373,2.459673
0.374,2.438045
0.375,2.424487
0.376,2.422228
0.377,2.431266
0.378,2.449021
0.379,2.471617
0.38,2.497119
0.381,2.519715
0.382,2.539407
0.383,2.552965
0.384,2.559098
0.385,2.557484
0.386,2.548768
0.387,2.531337
0.388,2.505512
0.389,2.476782
0.39,2.449021
0.391,2.428684
0.392,2.415771
0.393,2.415771
0.394,2.427392
0.395,2.446115
0.396,2.47194
0.397,2.498733
0.398,2.523589
0.399,2.542958
0.4,2.556193
0.401,2.562649
0.402,2.560389
0.403,2.549737
0.404,2.528431
0.405,2.500024
0.406,2.470003
0.407,2.44095
0.408,2.418677
0.409,2.406733
0.41,2.408024
0.411,2.419645
0.412,2.439659
0.413,2.464515
0.414,2.490663
0.415,2.514873
0.416,2.534565
0.417,2.548445
0.418,2.555224
0.419,2.553933
0.42,2.540698
0.421,2.519393
0.422,2.490986
0.423,2.46161
0.424,2.436108
0.425,2.418354
0.426,2.411252
0.427,2.41448
0.428,2.428038
0.429,2.447084
0.43,2.470326
0.431,2.491954
0.432,2.510677
0.433,2.524235
0.434,2.531659
0.435,2.532951
0.436,2.526494
0.437,2.511
0.438,2.486789
0.439,2.45935
0.44,2.43288
0.441,2.410607
0.442,2.398663
0.443,2.39834
0.444,2.40867
0.445,2.425778
0.446,2.449343
0.447,2.475814
0.448,2.502607
0.449,2.528108
0.45,2.549091
0.451,2.56394
0.452,2.568782
0.453,2.56168
0.454,2.547154
0.455,2.525203
0.456,2.503575
0.457,2.484529
0.458,2.471294
0.459,2.467743
0.46,2.474845
0.461,2.489049
0.462,2.504543
0.463,2.519715
0.464,2.534887
0.465,2.546186
0.466,2.551351
0.467,2.549091
0.468,2.540375
0.469,2.523266
0.47,2.495505
0.471,2.463224
0.472,2.430621
0.473,2.408024
0.474,2.409315
0.475,2.430621
0.476,2.472586
0.477,2.528108
0.478,2.599449
0.479,2.6766
0.48,2.756333
0.481,2.834776
0.482,2.906762
0.483,2.962285
0.484,2.988755
0.485,2.982944
0.486,2.945821
0.487,2.894495
0.488,2.822186
0.489,2.724053
0.49,2.600095
0.491,2.4742
0.492,2.369933
0.493,2.301175
0.494,2.26954
0.495,2.278901
0.496,2.324417
0.497,2.401245
0.498,2.498087
0.499,2.609133
0.5,2.736642
0.501,2.885134
0.502,3.066551
0.503,3.277022
0.504,3.484587
0.505,3.645022
0.506,3.726047
0.507,3.718945
0.508,3.621458
0.509,3.461668
0.51,3.277345
0.511,3.106902
0.512,2.96519
0.513,2.842846
0.514,2.72147
0.515,2.582986
0.516,2.41448
0.517,2.217568
0.518,2.016136
0.519,1.832781
0.52,1.685581
0.521,1.589707
0.522,1.549033
0.523,1.564851
0.524,1.640388
0.525,1.780809
0.526,1.978367
0.527,2.230803
0.528,2.532628
0.529,2.875772
0.53,3.225695
0.531,3.542047
0.532,3.763816
0.533,3.877121
0.534,3.891647
0.535,3.825149
0.536,3.703451
0.537,3.541078
0.538,3.313176
0.539,3.015871
0.54,2.666916
0.541,2.299238
0.542,1.961258
0.543,1.684612
0.544,1.474465
0.545,1.33598
0.546,1.281749
0.547,1.310801
0.548,1.434759
0.549,1.659433
0.55,1.968037
0.551,2.350564
0.552,2.758593
0.553,3.138215
0.554,3.461022
0.555,3.696994
0.556,3.831605
0.557,3.85743
0.558,3.79416
0.559,3.6631
0.56,3.506861
0.561,3.387422
0.562,3.286706
0.563,3.206327
0.564,3.160166
0.565,3.148867
0.566,3.213106
0.567,3.339001
0.568,3.462636
0.569,3.52397
0.57,3.453598
0.571,3.265078
0.572,2.988755
0.573,2.644319
0.574,2.281806
0.575,1.977722
0.576,1.795335
0.577,1.726255
0.578,1.740458
0.579,1.821806
0.58,1.928978
0.581,2.048094
0.582,2.173989
0.583,2.296333
0.584,2.381877
0.585,2.41674
0.586,2.407056
0.587,2.367673
0.588,2.304403
0.589,2.21434
0.59,2.116529
0.591,2.049062
0.592,2.036795
0.593,2.055518
0.594,2.123308
0.595,2.261792
0.596,2.456122
0.597,2.672726
0.598,2.900951
0.599,3.149836
0.6,3.388713
0.601,3.631787
0.602,3.871311
0.603,4.055311
0.604,4.128911
0.605,4.076616
0.606,3.884223
0.607,3.584012
0.608,3.190832
0.609,2.72147
0.61,2.230803
0.611,1.750788
0.612,1.303054
0.613,0.907937
0.614,0.589326
0.615,0.363038
0.616,0.2436
0.617,0.260708
0.618,0.416624
0.619,0.69779
0.62,1.068373
0.621,1.466717
0.622,1.850858
0.623,2.215308
0.624,2.573301
0.625,2.916446
0.626,3.210201
0.627,3.453598
0.628,3.627914
0.629,3.721528
0.63,3.738959
0.631,3.676335
0.632,3.537528
0.633,3.323183
0.634,3.070748
0.635,2.771505
0.636,2.392529
0.637,1.991925
0.638,1.612626
0.639,1.240752
0.64,0.898576
0.641,0.614828
0.642,0.418884
0.643,0.327207
0.644,0.345284
0.645,0.497326
0.646,0.774295
0.647,1.142941
0.648,1.558717
0.649,1.969006
0.65,2.354761
0.651,2.681442
0.652,2.935814
0.653,3.111099
0.654,3.204713
0.655,3.23538
0.656,3.203745
0.657,3.144994
0.658,3.077527
0.659,3.009414
0.66,2.919997
0.661,2.773765
0.662,2.576207
0.663,2.320866
0.664,1.993539
0.665,1.619728
0.666,1.242366
0.667,0.924078
0.668,0.682295
0.669,0.524119
0.67,0.457298
0.671,0.474084
0.672,0.563179
0.673,0.713607
0.674,0.921495
0.675,1.16231
0.676,1.417005
0.677,1.676542
0.678,1.912192
0.679,2.135897
0.68,2.342494
0.681,2.503898
0.682,2.585245
0.683,2.593961
0.684,2.554901
0.685,2.466129
0.686,2.323448
0.687,2.136866
0.688,1.933497
0.689,1.742072
0.69,1.58777
0.691,1.534184
0.692,1.632963
0.693,1.826325
0.694,2.030662
0.695,2.202718
0.696,2.303434
0.697,2.327645
0.698,2.339266
0.699,2.347659
0.7,2.308922
0.701,2.239841
0.702,2.161399
0.703,2.079729
0.704,1.932206
0.705,1.745946
0.706,1.56356
0.707,1.42217
0.708,1.360836
0.709,1.343405
0.71,1.331461
0.711,1.355994
0.712,1.443475
0.713,1.555812
0.714,1.653623
0.715,1.757567
0.716,1.8741
0.717,2.020978
0.718,2.146227
0.719,2.224669
0.72,2.227575
0.721,2.116852
0.722,1.914451
0.723,1.684935
0.724,1.439279
0.725,1.197173
0.726,0.98186
0.727,0.819488
0.728,0.767193
0.729,0.86565
0.73,1.107755
0.731,1.410226
0.732,1.715602
0.733,1.995476
0.734,2.196908
0.735,2.321512
0.736,2.404473
0.737,2.47775
0.738,2.507126
0.739,2.438691
0.74,2.308599
0.741,2.162045
0.742,2.005806
0.743,1.831167
0.744,1.628444
0.745,1.40151
0.746,1.173285
0.747,0.954422
0.748,0.756541
0.749,0.623221
0.75,0.557369
0.751,0.544133
0.752,0.582225
0.753,0.696176
0.754,0.900836
0.755,1.169412
0.756,1.458002
0.757,1.764346
0.758,2.096838
0.759,2.457414
0.76,2.727603
0.761,2.83187
0.762,2.812179
0.763,2.705653
0.764,2.521975
0.765,2.227252
0.766,1.802114
0.767,1.328556
0.768,0.879853
0.769,0.474407
0.77,0.123838
0.771,-0.000766
0.772,-0.001734
0.773,-0.00012
0.774,-0.001088
0.775,0.049592
0.776,0.22068
0.777,0.443417
0.778,0.713285
0.779,1.040289
0.78,1.403447
0.781,1.768865
0.782,2.061652
0.783,2.255336
0.784,2.326677
0.785,2.296333
0.786,2.164627
0.787,1.979013
0.788,1.797272
0.789,1.621342
0.79,1.392149
0.791,1.148429
0.792,0.914394
0.793,0.689397
0.794,0.469888
0.795,0.260386
0.796,0.099627
0.797,0.03442
0.798,0.056694
0.799,0.090912
0.8,0.135459
0.801,0.229719
0.802,0.354323
0.803,0.534772
0.804,0.748471
0.805,0.950225
0.806,1.110983
0.807,1.229777
0.808,1.342436
0.809,1.441216
0.81,1.495124
0.811,1.506745
0.812,1.503517
0.813,1.490928
0.814,1.433468
0.815,1.291756
0.816,1.047713
0.817,0.768485
0.818,0.516372
0.819,0.293958
0.82,0.082196
0.821,-0.001088
0.822,-0.000443
0.823,-0.001088
0.824,0.025382
0.825,0.119964
0.826,0.269424
0.827,0.4644
0.828,0.663249
0.829,0.815937
0.83,0.935376
0.831,1.020275
0.832,1.069987
0.833,1.07031
0.834,1.013173
0.835,0.904387
0.836,0.782365
0.837,0.661313
0.838,0.526056
0.839,0.3724
0.84,0.242954
0.841,0.189045
0.842,0.171936
0.843,0.152891
0.844,0.145466
0.845,0.201312
0.846,0.372723
0.847,0.62193
0.848,0.852092
0.849,1.04965
0.85,1.282394
0.851,1.523531
0.852,1.66137
0.853,1.681707
0.854,1.604233
0.855,1.455419
0.856,1.227517
0.857,0.921818
0.858,0.54833
0.859,0.160638
0.86,-0.001088
0.861,-0.001088
0.862,-0.001088
0.863,-0.001088
0.864,-0.001088
0.865,-0.001088
0.866,-0.001088
0.867,-0.001734
0.868,-0.001088
0.869,-0.001088
0.87,-0.001411
0.871,-0.001088
0.872,-0.000766
0.873,-0.001088
0.874,-0.000766
0.875,0.021185
0.876,0.122547
0.877,0.231979
0.878,0.313649
0.879,0.373045
0.88,0.419853
0.881,0.446968
0.882,0.50927
0.883,0.600625
0.884,0.667446
0.885,0.691334
0.886,0.650983
0.887,0.54607
0.888,0.386926
0.889,0.221003
0.89,0.081227
0.891,-0.001411
0.892,-0.001411
0.893,-0.001734
0.894,-0.00012
0.895,0.020862
0.896,0.046364
0.897,0.060568
0.898,0.044427
0.899,0.002785
0.9,-0.001088
0.901,-0.001088
0.902,-0.000443
0.903,-0.000443
0.904,0.027964
0.905,0.061536
0.906,0.131585
0.907,0.245214
0.908,0.361424
0.909,0.428891
0.91,0.440189
0.911,0.442772
0.912,0.446
0.913,0.422112
0.914,0.383052
0.915,0.367235
0.916,0.354968
0.917,0.30687
0.918,0.281045
0.919,0.29654
0.92,0.318168
0.921,0.338505
0.922,0.338182
0.923,0.258126
0.924,0.096722
0.925,-0.000766
0.926,-0.001411
0.927,-0.001411
0.928,-0.001411
0.929,-0.001088
0.93,-0.001088
0.931,-0.001088
0.932,-0.001088
0.933,-0.001411
0.934,-0.000766
0.935,-0.000766
0.936,-0.001088
0.937,-0.001088
0.938,-0.000443
0.939,-0.001088
0.94,-0.000766
0.941,-0.001088
0.942,-0.00012
0.943,0.044105
0.944,0.15741
0.945,0.310098
0.946,0.422435
0.947,0.456975
0.948,0.417593
0.949,0.328175
0.95,0.210028
0.951,0.106406
0.952,0.040876
0.953,-0.001411
0.954,-0.000766
0.955,-0.001411
0.956,-0.001088
0.957,-0.001088
0.958,-0.000766
0.959,0.005368
0.96,0.001494
0.961,-0.001411
0.962,-0.000766
0.963,0.001494
0.964,0.013761
0.965,-0.000766
0.966,-0.000766
0.967,0.037971
0.968,0.106406
0.969,0.182266
0.97,0.240372
0.971,0.285565
0.972,0.344316
0.973,0.433733
0.974,0.526702
0.975,0.571249
0.976,0.559628
0.977,0.563825
0.978,0.589004
0.979,0.561888
0.98,0.4828
0.981,0.384021
0.982,0.278463
0.983,0.159347
0.984,0.01828
0.985,-0.001088
0.986,-0.001088
0.987,-0.001088
0.988,-0.001088
0.989,-0.001411
0.99,-0.000766
0.991,-0.000443
0.992,-0.001088
0.993,-0.000766
0.994,0.04701
0.995,0.109634
0.996,0.148049
0.997,0.175164
0.998,0.221972
0.999,0.265551
1.0,0.267165
1.001,0.242308
1.002,0.222294
1.003,0.180007
1.004,0.101241
1.005,0.027641
1.006,-0.000766
1.007,-0.000766
1.008,-0.00012
1.009,-0.001734
1.01,-0.000766
1.011,-0.001088
1.012,-0.000766
1.013,-0.001088
1.014,-0.001411
1.015,-0.001088
1.016,-0.001088
1.017,0.002462
1.018,0.074126
1.019,0.151277
1.02,0.229396
1.021,0.291698
1.022,0.2988
1.023,0.258772
1.024,0.172582
1.025,0.049592
1.026,-0.001088
1.027,-0.001088
1.028,-0.001088
1.029,0.015697
1.03,0.067992
1.031,0.117705
1.032,0.161284
1.033,0.238112
1.034,0.339473
1.035,0.437284
1.036,0.499909
1.037,0.52993
1.038,0.54607
1.039,0.530898
1.04,0.48506
1.041,0.428568
1.042,0.375951
1.043,0.320105
1.044,0.257803
1.045,0.209382
1.046,0.183235
1.047,0.153213
1.048,0.119319
1.049,0.13675
1.05,0.219712
1.051,0.309452
1.052,0.334631
1.053,0.290407
1.054,0.1884
1.055,0.075417
1.056,-0.000766
1.057,-0.001411
1.058,-0.000766
1.059,-0.001088
1.06,-0.001088
1.061,-0.00012
1.062,0.024413
1.063,0.103178
1.064,0.245859
1.065,0.435347
1.066,0.606758
1.067,0.735881
1.068,0.843376
1.069,0.915362
1.07,0.943446
1.071,0.915362
1.072,0.829172
1.073,0.675193
1.074,0.471502
1.075,0.280077
1.076,0.131908
1.077,0.046687
1.078,-0.001088
1.079,-0.001411
1.08,-0.000766
1.081,-0.001088
1.082,-0.000766
1.083,0.004722
1.084,0.088006
1.085,0.208091
1.086,0.376919
1.087,0.578674
1.088,0.772358
1.089,0.950548
1.09,1.098071
1.091,1.192977
1.092,1.20492
1.093,1.137454
1.094,1.015755
1.095,0.848864
1.096,0.650014
1.097,0.465368
1.098,0.306224
1.099,0.157733
1.1,0.049592
1.101,0.000848
1.102,-0.00012
1.103,0.010533
1.104,0.037003
1.105,0.066701
1.106,0.09995
1.107,0.157087
1.108,0.219712
1.109,0.269424
1.11,0.317523
1.111,0.375305
1.112,0.446323
1.113,0.510239
1.114,0.562211
1.115,0.619993
1.116,0.689074
1.117,0.776878
1.118,0.856934
1.119,0.897285
1.12,0.896962
1.121,0.865973
1.122,0.811418
1.123,0.725228
1.124,0.612891
1.125,0.490547
1.126,0.38273
1.127,0.293635
1.128,0.224877
1.129,0.188722
1.13,0.189691
1.131,0.23101
1.132,0.314294
1.133,0.436639
1.134,0.588681
1.135,0.762674
1.136,0.917622
1.137,1.025117
1.138,1.060625
1.139,1.098717
1.14,1.18652
1.141,1.258829
1.142,1.254633
1.143,1.215573
1.144,1.137454
1.145,1.006071
1.146,0.849187
1.147,0.690365
1.148,0.525733
1.149,0.353031
1.15,0.180975
1.151,0.037648
1.152,-0.001088
1.153,-0.000766
1.154,-0.001411
1.155,-0.001088
1.156,0.015052
1.157,0.080905
1.158,0.190014
1.159,0.334631
1.16,0.505397
1.161,0.690688
1.162,0.88405
1.163,1.072247
1.164,1.241075
1.165,1.373749
1.166,1.456065
1.167,1.481566
1.168,1.451545
1.169,1.372135
1.17,1.245917
1.171,1.085804
1.172,0.902773
1.173,0.702955
1.174,0.52186
1.175,0.39887
1.176,0.366589
1.177,0.43567
1.178,0.599656
1.179,0.803671
1.18,1.014787
1.181,1.181678
1.182,1.310801
1.183,1.403447
1.184,1.449931
1.185,1.456387
1.186,1.42217
1.187,1.356963
1.188,1.278198
1.189,1.213313
1.19,1.142619
1.191,1.04965
1.192,0.930857
1.193,0.795278
1.194,0.682941
1.195,0.628063
1.196,0.625804
1.197,0.65066
1.198,0.711348
1.199,0.793341
1.2,0.91278
1.201,1.095166
1.202,1.312093
1.203,1.481566
1.204,1.569047
1.205,1.582605
1.206,1.521595
1.207,1.411517
1.208,1.277229
1.209,1.132612
1.21,0.988317
1.211,0.846927
1.212,0.716513
1.213,0.612569
1.214,0.540905
1.215,0.506688
1.216,0.506042
1.217,0.539614
1.218,0.607404
1.219,0.701018
1.22,0.819165
1.221,0.96346
1.222,1.144878
1.223,1.358254
1.224,1.570339
1.225,1.744655
1.226,1.867967
1.227,1.957062
1.228,2.020332
1.229,2.03163
1.23,1.984178
1.231,1.890564
1.232,1.755307
1.233,1.589707
1.234,1.398928
1.235,1.208148
1.236,1.034478
1.237,0.888246
1.238,0.789467
1.239,0.740078
1.24,0.723614
1.241,0.736849
1.242,0.787853
1.243,0.876948
1.244,0.998324
1.245,1.146492
1.246,1.316935
1.247,1.509974
1.248,1.71657
1.249,1.920907
1.25,2.094578
1.251,2.214662
1.252,2.303757
1.253,2.357989
1.254,2.361217
1.255,2.293427
1.256,2.133315
1.257,1.933497
1.258,1.75789
1.259,1.599068
1.26,1.435405
1.261,1.274001
1.262,1.130029
1.263,1.010267
1.264,0.917299
1.265,0.874688
1.266,0.881144
1.267,0.937313
1.268,1.035124
1.269,1.166184
1.27,1.318549
1.271,1.47963
1.272,1.643616
1.273,1.801792
1.274,1.953834
1.275,2.098774
1.276,2.23274
1.277,2.351856
1.278,2.468389
1.279,2.601063
1.28,2.708881
1.281,2.731154
1.282,2.654972
1.283,2.526172
1.284,2.368964
1.285,2.172697
1.286,1.947701
1.287,1.715602
1.288,1.490928
1.289,1.290464
1.29,1.116471
1.291,0.986703
1.292,0.918913
1.293,0.924723
1.294,0.995741
1.295,1.125833
1.296,1.292724
1.297,1.493833
1.298,1.722381
1.299,1.964487
1.3,2.224347
1.301,2.493891
1.302,2.736965
1.303,2.914832
1.304,3.010383
1.305,3.022327
1.306,2.976488
1.307,2.877063
1.308,2.713723
1.309,2.4926
1.31,2.226606
1.311,1.947055
1.312,1.697847
1.313,1.492542
1.314,1.323068
1.315,1.206857
1.316,1.161664
1.317,1.187812
1.318,1.274647
1.319,1.413777
1.32,1.583574
1.321,1.76822
1.322,1.965455
1.323,2.165273
1.324,2.354761
1.325,2.524558
1.326,2.66853
1.327,2.779253
1.328,2.850916
1.329,2.879323
1.33,2.863505
1.331,2.804109
1.332,2.706944
1.333,2.572979
1.334,2.410929
1.335,2.237259
1.336,2.064234
1.337,1.904121
1.338,1.774998
1.339,1.696233
1.34,1.677833
1.341,1.711728
1.342,1.788556
1.343,1.896697
1.344,2.02582
1.345,2.167532
1.346,2.312473
1.347,2.455154
1.348,2.585568
1.349,2.695968
1.35,2.783772
1.351,2.849948
1.352,2.888362
1.353,2.900951
1.354,2.887393
1.355,2.833162
1.356,2.741484
1.357,2.625596
1.358,2.503575
1.359,2.39834
1.36,2.314087
1.361,2.243715
1.362,2.172375
1.363,2.118143
1.364,2.118789
1.365,2.179799
1.366,2.261469
1.367,2.339912
1.368,2.408992
1.369,2.469035
1.37,2.513259
1.371,2.540698
1.372,2.551351
1.373,2.54554
1.374,2.529722
1.375,2.507772
1.376,2.487112
1.377,2.470649
1.378,2.464838
1.379,2.463547
1.38,2.462579
1.381,2.470972
1.382,2.490663
1.383,2.512614
1.384,2.534565
1.385,2.56394
1.386,2.60881
1.387,2.672081
1.388,2.745681
1.389,2.838972
1.39,2.930327
1.391,3.003927
1.392,3.05493
1.393,3.081723
1.394,3.073008
1.395,3.021681
1.396,2.926776
1.397,2.798944
1.398,2.655617
1.399,2.517779
1.4,2.393175
1.401,2.290522
1.402,2.218859
1.403,2.177539
1.404,2.173343
1.405,2.20401
1.406,2.26502
1.407,2.346691
1.408,2.448698
1.409,2.568459
1.41,2.699196
1.411,2.829933
1.412,2.950986
1.413,3.052025
1.414,3.127239
1.415,3.176952
1.416,3.201162
1.417,3.203422
1.418,3.185345
1.419,3.147576
1.42,3.097218
1.421,3.034271
1.422,2.961316
1.423,2.881905
1.424,2.80766
1.425,2.751168
1.426,2.720179
1.427,2.716628
1.428,2.743421
1.429,2.800881
1.43,2.875772
1.431,2.953892
1.432,3.025555
1.433,3.087534
1.434,3.133695
1.435,3.163071
1.436,3.174692
1.437,3.159843
1.438,3.127562
1.439,3.090762
1.44,3.056867
1.441,3.028137
1.442,3.000053
1.443,2.97552
1.444,2.961639
1.445,2.962607
1.446,2.977134
1.447,3.00199
1.448,3.032011
1.449,3.065906
1.45,3.101415
1.451,3.139506
1.452,3.172109
1.453,3.190509
1.454,3.193738
1.455,3.187927
1.456,3.181471
1.457,3.187281
1.458,3.209878
1.459,3.247324
1.46,3.293162
1.461,3.331254
1.462,3.351268
1.463,3.346426
1.464,3.310594
1.465,3.247969
1.466,3.175338
1.467,3.100769
1.468,3.029751
1.469,2.965835
1.47,2.912572
1.471,2.873835
1.472,2.856081
1.473,2.854467
1.474,2.879323
1.475,2.935169
1.476,3.013934
1.477,3.109162
1.478,3.214397
1.479,3.324152
1.48,3.427773
1.481,3.527198
1.482,3.615324
1.483,3.66891
1.484,3.671815
1.485,3.630173
1.486,3.551408
1.487,3.443268
1.488,3.318664
1.489,3.189218
1.49,3.067197
1.491,2.964867
1.492,2.892881
1.493,2.856726
1.494,2.855112
1.495,2.888039
1.496,2.948727
1.497,3.028783
1.498,3.122074
1.499,3.225695
1.5,3.328025
1.501,3.431647
1.502,3.52171
1.503,3.574973
1.504,3.587886
1.505,3.565289
1.506,3.523001
1.507,3.476517
1.508,3.426159
1.509,3.380643
1.51,3.345134
1.511,3.324152
1.512,3.324152
1.513,3.32738
1.514,3.31931
1.515,3.301555
1.516,3.28025
1.517,3.259913
1.518,3.244418
1.519,3.231829
1.52,3.220853
1.521,3.21472
1.522,3.219239
1.523,3.240545
1.524,3.27799
1.525,3.339969
1.526,3.411633
1.527,3.47458
1.528,3.523001
1.529,3.555928
1.53,3.573682
1.531,3.582075
1.532,3.579815
1.533,3.564321
1.534,3.540433
1.535,3.509766
1.536,3.474257
1.537,3.433906
1.538,3.39291
1.539,3.355464
1.54,3.326089
1.541,3.314468
1.542,3.328671
1.543,3.368699
1.544,3.42971
1.545,3.508152
1.546,3.594987
1.547,3.676012
1.548,3.739605
1.549,3.780602
1.55,3.793837
1.551,3.78964
1.552,3.772531
1.553,3.740251
1.554,3.688924
1.555,3.622749
1.556,3.547212
1.557,3.469092
1.558,3.393878
1.559,3.33319
1.56,3.287029
1.561,3.259267
1.562,3.255717
1.563,3.27799
1.564,3.325443
1.565,3.391619
1.566,3.472643
1.567,3.561738
1.568,3.649865
1.569,3.72637
1.57,3.784153
1.571,3.819984
1.572,3.835479
1.573,3.831282
1.574,3.810623
1.575,3.77931
1.576,3.737991
1.577,3.696349
1.578,3.65858
1.579,3.629851
1.58,3.6079
1.581,3.589822
1.582,3.574328
1.583,3.564643
1.584,3.557864
1.585,3.553345
1.586,3.550117
1.587,3.549471
1.588,3.548503
1.589,3.546889
1.59,3.547535
1.591,3.5527
1.592,3.569163
1.593,3.594664
1.594,3.630819
1.595,3.670524
1.596,3.712489
1.597,3.748321
1.598,3.776405
1.599,3.792223
1.6,3.793837
1.601,3.786089
1.602,3.768658
1.603,3.742188
1.604,3.707002
1.605,3.669879
1.606,3.639212
1.607,3.622103
1.608,3.621135
1.609,3.638566
1.61,3.674398
1.611,3.720559
1.612,3.764138
1.613,3.794805
1.614,3.806103
1.615,3.802553
1.616,3.793514
1.617,3.78157
1.618,3.768981
1.619,3.757359
1.62,3.744447
1.621,3.734117
1.622,3.729921
1.623,3.731212
1.624,3.732826
1.625,3.735086
1.626,3.741219
1.627,3.754454
1.628,3.777051
1.629,3.802875
1.63,3.829023
1.631,3.852588
1.632,3.872602
1.633,3.887128
1.634,3.893261
1.635,3.88164
1.636,3.84936
1.637,3.806426
1.638,3.763493
1.639,3.733149
1.64,3.715395
1.641,3.712812
1.642,3.727661
1.643,3.758005
1.644,3.802875
1.645,3.859689
1.646,3.922637
1.647,3.988812
1.648,4.051437
1.649,4.101149
1.65,4.134721
1.651,4.150539
1.652,4.150216
1.653,4.134076
1.654,4.102118
1.655,4.057893
1.656,4.004953
1.657,3.946525
1.658,3.887451
1.659,3.835156
1.66,3.79416
1.661,3.766398
1.662,3.751872
1.663,3.750258
1.664,3.762202
1.665,3.781247
1.666,3.806749
1.667,3.836125
1.668,3.868405
1.669,3.902623
1.67,3.931998
1.671,3.952012
1.672,3.964925
1.673,3.972026
1.674,3.976546
1.675,3.982679
1.676,3.992041
1.677,4.003339
1.678,4.015283
1.679,4.025613
1.68,4.033683
1.681,4.037879
1.682,4.037879
1.683,4.032391
1.684,4.024644
1.685,4.016251
1.686,4.007858
1.687,3.996237
1.688,3.982034
1.689,3.972026
1.69,3.972349
1.691,3.985907
1.692,4.013023
1.693,4.05176
1.694,4.096307
1.695,4.139241
1.696,4.177332
1.697,4.208967
1.698,4.234792
1.699,4.250609
1.7,4.252869
1.701,4.246413
1.702,4.231241
1.703,4.204125
1.704,4.163774
1.705,4.108251
1.706,4.042721
1.707,3.976869
1.708,3.921991
1.709,3.88616
1.71,3.867114
1.711,3.867114
1.712,3.888097
1.713,3.924251
1.714,3.975577
1.715,4.033037
1.716,4.092434
1.717,4.149248
1.718,4.19896
1.719,4.238343
1.72,4.260616
1.721,4.267718
1.722,4.259648
1.723,4.24028
1.724,4.214455
1.725,4.187016
1.726,4.159578
1.727,4.137304
1.728,4.118581
1.729,4.103732
1.73,4.091142
1.731,4.080813
1.732,4.074034
1.733,4.069192
1.734,4.066609
1.735,4.066286
1.736,4.065641
1.737,4.063381
1.738,4.058862
1.739,4.054988
1.74,4.055311
1.741,4.062735
1.742,4.080167
1.743,4.106314
1.744,4.136336
1.745,4.168939
1.746,4.199606
1.747,4.222848
1.748,4.238988
1.749,4.245444
1.75,4.246736
1.751,4.24028
1.752,4.224785
1.753,4.202511
1.754,4.17023
1.755,4.133753
1.756,4.098244
1.757,4.069514
1.758,4.052083
1.759,4.050469
1.76,4.064672
1.761,4.092434
1.762,4.131493
1.763,4.180237
1.764,4.232209
1.765,4.282245
1.766,4.326792
1.767,4.359396
1.768,4.378118
1.769,4.382315
1.77,4.370371
1.771,4.343255
1.772,4.308715
1.773,4.267395
1.774,4.225108
1.775,4.189276
1.776,4.16442
1.777,4.152799
1.778,4.153122
1.779,4.16442
1.78,4.183788
1.781,4.208322
1.782,4.235437
1.783,4.261585
1.784,4.287732
1.785,4.308069
1.786,4.322918
1.787,4.328406
1.788,4.325501
1.789,4.318076
1.79,4.311297
1.791,4.310652
1.792,4.31969
1.793,4.341641
1.794,4.375859
1.795,4.41621
1.796,4.454301
1.797,4.475929
1.798,4.472055
1.799,4.451718
1.8,4.420729
1.801,4.383606
1.802,4.340995
1.803,4.295157
1.804,4.247704
1.805,4.205094
1.806,4.171199
1.807,4.153444
1.808,4.153767
1.809,4.174104
1.81,4.21155
1.811,4.262553
1.812,4.322595
1.813,4.385543
1.814,4.444617
1.815,4.49562
1.816,4.535003
1.817,4.559213
1.818,4.568575
1.819,4.560505
1.82,4.532743
1.821,4.490455
1.822,4.433964
1.823,4.371339
1.824,4.311297
1.825,4.259325
1.826,4.220911
1.827,4.198315
1.828,4.19315
1.829,4.202188
1.83,4.222848
1.831,4.250287
1.832,4.282245
1.833,4.316139
1.834,4.34842
1.835,4.376182
1.836,4.39781
1.837,4.411045
1.838,4.415241
1.839,4.414596
1.84,4.410076
1.841,4.407494
1.842,4.403943
1.843,4.400715
1.844,4.397487
1.845,4.392645
1.846,4.382638
1.847,4.368757
1.848,4.349711
1.849,4.32776
1.85,4.309038
1.851,4.299676
1.852,4.297094
1.853,4.298385
1.854,4.297416
1.855,4.29096
1.856,4.27708
1.857,4.264813
1.858,4.259971
1.859,4.266427
1.86,4.283213
1.861,4.308392
1.862,4.338413
1.863,4.36908
1.864,4.39781
1.865,4.418469
1.866,4.43009
1.867,4.430736
1.868,4.420729
1.869,4.40136
1.87,4.371339
1.871,4.334217
1.872,4.294188
1.873,4.257388
1.874,4.230273
1.875,4.212518
1.876,4.205739
1.877,4.207676
1.878,4.21962
1.879,4.241248
1.88,4.271269
1.881,4.302259
1.882,4.333894
1.883,4.361332
1.884,4.38522
1.885,4.399424
1.886,4.397487
1.887,4.380701
1.888,4.352294
1.889,4.314202
1.89,4.272237
1.891,4.232855
1.892,4.202188
1.893,4.186048
1.894,4.180883
1.895,4.186371
1.896,4.19896
1.897,4.216392
1.898,4.237374
1.899,4.25868
1.9,4.277402
1.901,4.29322
1.902,4.305487
1.903,4.313557
1.904,4.315816
1.905,4.318399
1.906,4.320336
1.907,4.324532
1.908,4.33228
1.909,4.339704
1.91,4.340027
1.911,4.330666
1.912,4.310974
1.913,4.283859
1.914,4.252546
1.915,4.218329
1.916,4.187985
1.917,4.160869
1.918,4.136981
1.919,4.11503
1.92,4.09663
1.921,4.082427
1.922,4.074356
1.923,4.074034
1.924,4.084364
1.925,4.108897
1.926,4.146988
1.927,4.195086
1.928,4.245767
1.929,4.294834
1.93,4.335508
1.931,4.36682
1.932,4.385543
1.933,4.389094
1.934,4.379087
1.935,4.354553
1.936,4.316462
1.937,4.265136
1.938,4.204125
1.939,4.140532
1.94,4.082427
1.941,4.035297
1.942,4.004953
1.943,3.9943
1.944,4.001079
1.945,4.023676
1.946,4.058539
1.947,4.098244
1.948,4.1415
1.949,4.183465
1.95,4.221557
1.951,4.25416
1.952,4.279985
1.953,4.295802
1.954,4.298385
1.955,4.289346
1.956,4.263844
1.957,4.226722
1.958,4.186693
1.959,4.153444
1.96,4.131816
1.961,4.118258
1.962,4.115999
1.963,4.12536
1.964,4.139564
1.965,4.148925
1.966,4.152799
1.967,4.150539
1.968,4.134399
1.969,4.106314
1.97,4.068546
1.971,4.032714
1.972,4.00689
1.973,3.998174
1.974,4.005921
1.975,4.030455
1.976,4.068869
1.977,4.107928
1.978,4.139886
1.979,4.162483
1.98,4.177009
1.981,4.181529
1.982,4.175072
1.983,4.158609
1.984,4.132462
1.985,4.099858
1.986,4.063704
1.987,4.024644
1.988,3.984293
1.989,3.94717
1.99,3.916826
1.991,3.899718
1.992,3.899395
1.993,3.915858
1.994,3.947493
1.995,3.990427
1.996,4.038848
1.997,4.086623
1.998,4.128588
1.999,4.160546
2.0,4.181851
2.001,4.190244
2.002,4.185402
2.003,4.16442
2.004,4.127943
2.005,4.083072
2.006,4.032714
2.007,3.983648
2.008,3.939423
2.009,3.905528
2.01,3.883577
2.011,3.874539
2.012,3.876798
2.013,3.886805
2.014,3.90456
2.015,3.926833
2.016,3.952012
2.017,3.976546
2.018,4.000756
2.019,4.020448
2.02,4.03336
2.021,4.038202
2.022,4.037556
2.023,4.031746
2.024,4.025935
2.025,4.020125
2.026,4.017865
2.027,4.018188
2.028,4.02077
2.029,4.024644
2.03,4.029486
2.031,4.0311
2.032,4.030455
2.033,4.026258
2.034,4.018188
2.035,4.004953
2.036,3.989135
2.037,3.970412
2.038,3.948139
2.039,3.926188
2.04,3.907142
2.041,3.893584
2.042,3.886482
2.043,3.888742
2.044,3.897135
2.045,3.91263
2.046,3.931353
2.047,3.950721
2.048,3.97009
2.049,3.984293
2.05,3.993655
2.051,3.997205
2.052,3.993332
2.053,3.979128
2.054,3.954272
2.055,3.923605
2.056,3.893261
2.057,3.865823
2.058,3.846454
2.059,3.837416
2.06,3.838707
2.061,3.850974
2.062,3.871633
2.063,3.894553
2.064,3.918118
2.065,3.940069
2.066,3.957823
2.067,3.969444
2.068,3.976223
2.069,3.972349
2.07,3.956855
2.071,3.931998
2.072,3.9023
2.073,3.871311
2.074,3.844518
2.075,3.825149
2.076,3.815788
2.077,3.818047
2.078,3.829023
2.079,3.845809
2.08,3.86324
2.081,3.880995
2.082,3.89649
2.083,3.907788
2.084,3.913276
2.085,3.91263
2.086,3.903591
2.087,3.885191
2.088,3.861304
2.089,3.83451
2.09,3.807717
2.091,3.787703
2.092,3.777374
2.093,3.777696
2.094,3.788672
2.095,3.808363
2.096,3.833219
2.097,3.857753
2.098,3.877767
2.099,3.890356
2.1,3.895844
2.101,3.89423
2.102,3.88616
2.103,3.869374
2.104,3.842581
2.105,3.805458
2.106,3.759619
2.107,3.712812
2.108,3.67698
2.109,3.655675
2.11,3.648573
2.111,3.655029
2.112,3.673752
2.113,3.698931
2.114,3.729598
2.115,3.759942
2.116,3.78964
2.117,3.81611
2.118,3.83677
2.119,3.848068
2.12,3.847746
2.121,3.835156
2.122,3.814174
2.123,3.784475
2.124,3.7551
2.125,3.727016
2.126,3.706356
2.127,3.691507
2.128,3.685051
2.129,3.683437
2.13,3.686019
2.131,3.691507
2.132,3.696994
2.133,3.702805
2.134,3.707002
2.135,3.709261
2.136,3.707647
2.137,3.6999
2.138,3.686019
2.139,3.669556
2.14,3.655675
2.141,3.645668
2.142,3.643408
2.143,3.65051
2.144,3.665682
2.145,3.685373
2.146,3.709907
2.147,3.730889
2.148,3.745093
2.149,3.749289
2.15,3.738959
2.151,3.720237
2.152,3.693121
2.153,3.659549
2.154,3.620489
2.155,3.579493
2.156,3.543015
2.157,3.513963
2.158,3.498145
2.159,3.497499
2.16,3.51138
2.161,3.536882
2.162,3.5711
2.163,3.608868
2.164,3.645991
2.165,3.678917
2.166,3.703773
2.167,3.719268
2.168,3.723465
2.169,3.714103
2.17,3.691184
2.171,3.654707
2.172,3.612096
2.173,3.566903
2.174,3.526552
2.175,3.494917
2.176,3.478454
2.177,3.475226
2.178,3.485233
2.179,3.506861
2.18,3.530749
2.181,3.555605
2.182,3.577233
2.183,3.597247
2.184,3.61145
2.185,3.622103
2.186,3.623717
2.187,3.615324
2.188,3.597893
2.189,3.577879
2.19,3.555282
2.191,3.537205
2.192,3.524938
2.193,3.518805
2.194,3.520742
2.195,3.525261
2.196,3.530103
2.197,3.534622
2.198,3.537528
2.199,3.538819
2.2,3.537528
2.201,3.533008
2.202,3.524615
2.203,3.510412
2.204,3.489752
2.205,3.466833
2.206,3.445205
2.207,3.430355
2.208,3.421962
2.209,3.425513
2.21,3.441008
2.211,3.465219
2.212,3.49298
2.213,3.521064
2.214,3.545921
2.215,3.564643
2.216,3.575942
2.217,3.580461
2.218,3.57465
2.219,3.558833
2.22,3.52978
2.221,3.492012
2.222,3.448755
2.223,3.409373
2.224,3.375801
2.225,3.353527
2.226,3.345134
2.227,3.351268
2.228,3.368376
2.229,3.392587
2.23,3.422931
2.231,3.452629
2.232,3.480068
2.233,3.50105
2.234,3.515577
2.235,3.52171
2.236,3.515899
2.237,3.498145
2.238,3.471352
2.239,3.438748
2.24,3.407436
2.241,3.379997
2.242,3.360306
2.243,3.34804
2.244,3.342552
2.245,3.343197
2.246,3.34804
2.247,3.356755
2.248,3.367408
2.249,3.377092
2.25,3.383871
2.251,3.390973
2.252,3.393555
2.253,3.389359
2.254,3.377738
2.255,3.362243
2.256,3.34578
2.257,3.332868
2.258,3.325766
2.259,3.325443
2.26,3.331254
2.261,3.342875
2.262,3.357078
2.263,3.371604
2.264,3.384194
2.265,3.394847
2.266,3.401626
2.267,3.401626
2.268,3.396461
2.269,3.38258
2.27,3.360306
2.271,3.331899
2.272,3.301555
2.273,3.271534
2.274,3.247969
2.275,3.234411
2.276,3.231829
2.277,3.243127
2.278,3.262173
2.279,3.287029
2.28,3.314468
2.281,3.339969
2.282,3.361597
2.283,3.376124
2.284,3.382903
2.285,3.381612
2.286,3.369345
2.287,3.346426
2.288,3.316082
2.289,3.281864
2.29,3.24926
2.291,3.223113
2.292,3.207618
2.293,3.203422
2.294,3.210524
2.295,3.224081
2.296,3.243773
2.297,3.265078
2.298,3.284446
2.299,3.298004
2.3,3.307366
2.301,3.310271
2.302,3.307043
2.303,3.295745
2.304,3.274117
2.305,3.247646
2.306,3.219885
2.307,3.195029
2.308,3.177597
2.309,3.16985
2.31,3.173401
2.311,3.184699
2.312,3.201808
2.313,3.222467
2.314,3.243127
2.315,3.261204
2.316,3.273794
2.317,3.279927
2.318,3.280573
2.319,3.27218
2.32,3.252811
2.321,3.225373
2.322,3.191478
2.323,3.158874
2.324,3.131436
2.325,3.112713
2.326,3.107225
2.327,3.113036
2.328,3.127239
2.329,3.147253
2.33,3.168881
2.331,3.190832
2.332,3.20891
2.333,3.22279
2.334,3.230538
2.335,3.230215
2.336,3.220853
2.337,3.201808
2.338,3.174046
2.339,3.143702
2.34,3.115295
2.341,3.093344
2.342,3.080755
2.343,3.079786
2.344,3.088825
2.345,3.10432
2.346,3.12498
2.347,3.143702
2.348,3.160488
2.349,3.171141
2.35,3.175338
2.351,3.172755
2.352,3.162425
2.353,3.141766
2.354,3.112713
2.355,3.079464
2.356,3.045892
2.357,3.018453
2.358,3.002313
2.359,2.998116
2.36,3.008446
2.361,3.031043
2.362,3.060095
2.363,3.094636
2.364,3.127239
2.365,3.155969
2.366,3.177597
2.367,3.189864
2.368,3.192769
2.369,3.184376
2.37,3.163071
2.371,3.132404
2.372,3.097541
2.373,3.062678
2.374,3.033948
2.375,3.014902
2.376,3.006186
2.377,3.0078
2.378,3.01813
2.379,3.035885
2.38,3.056544
2.381,3.076881
2.382,3.095281
2.383,3.110453
2.384,3.119169
2.385,3.121106
2.386,3.112067
2.387,3.09399
2.388,3.068165
2.389,3.037822
2.39,3.009737
2.391,2.98585
2.392,2.971
2.393,2.967449
2.394,2.972937
2.395,2.987141
2.396,3.005541
2.397,3.026846
2.398,3.046215
2.399,3.062355
2.4,3.07559
2.401,3.082369
2.402,3.082369
2.403,3.071393
2.404,3.052025
2.405,3.025878
2.406,2.997471
2.407,2.971969
2.408,2.953569
2.409,2.945176
2.41,2.945499
2.411,2.955506
2.412,2.971323
2.413,2.989723
2.414,3.006509
2.415,3.022327
2.416,3.033302
2.417,3.039436
2.418,3.042018
2.419,3.03653
2.42,3.022327
2.421,2.998762
2.422,2.972292
2.423,2.947435
2.424,2.927421
2.425,2.914509
2.426,2.913541
2.427,2.923225
2.428,2.940979
2.429,2.964221
2.43,2.988432
2.431,3.009414
2.432,3.026523
2.433,3.037822
2.434,3.041372
2.435,3.035885
2.436,3.02039
2.437,2.995857
2.438,2.964867
2.439,2.932263
2.44,2.90192
2.441,2.878355
2.442,2.866088
2.443,2.864797
2.444,2.874804
2.445,2.891267
2.446,2.912572
2.447,2.934523
2.448,2.956474
2.449,2.974228
2.45,2.986818
2.451,2.99166
2.452,2.989078
2.453,2.976811
2.454,2.95486
2.455,2.926776
2.456,2.899014
2.457,2.874804
2.458,2.856404
2.459,2.849948
2.46,2.853176
2.461,2.864797
2.462,2.882874
2.463,2.903211
2.464,2.922902
2.465,2.940334
2.466,2.952923
2.467,2.958734
2.468,2.958088
2.469,2.949695
2.47,2.930972
2.471,2.904825
2.472,2.873835
2.473,2.845428
2.474,2.820572
2.475,2.8054
2.476,2.804109
2.477,2.812179
2.478,2.829933
2.479,2.853498
2.48,2.879323
2.481,2.904825
2.482,2.925484
2.483,2.941302
2.484,2.950663
2.485,2.952923
2.486,2.943885
2.487,2.925484
2.488,2.898046
2.489,2.868348
2.49,2.838004
2.491,2.813147
2.492,2.794747
2.493,2.787
2.494,2.787968
2.495,2.796039
2.496,2.808305
2.497,2.823477
2.498,2.838972
2.499,2.851239
2.5,2.863183
2.501,2.869639
2.502,2.871898
2.503,2.866734
2.504,2.853821
2.505,2.838326
2.506,2.821863
2.507,2.809597
2.508,2.803786
2.509,2.806369
2.51,2.818312
2.511,2.834453
2.512,2.856726
2.513,2.877386
2.514,2.894495
2.515,2.905793
2.516,2.910958
2.517,2.90773
2.518,2.897723
2.519,2.880291
2.52,2.85253
2.521,2.817021
2.522,2.778284
2.523,2.740839
2.524,2.712754
2.525,2.695646
2.526,2.693063
2.527,2.702425
2.528,2.722116
2.529,2.748586
2.53,2.776993
2.531,2.807337
2.532,2.833162
2.533,2.85479
2.534,2.870284
2.535,2.877386
2.536,2.874158
2.537,2.858341
2.538,2.832193
2.539,2.80314
2.54,2.772797
2.541,2.746326
2.542,2.728895
2.543,2.72147
2.544,2.723407
2.545,2.7318
2.546,2.746972
2.547,2.762467
2.548,2.779253
2.549,2.793779
2.55,2.803463
2.551,2.807983
2.552,2.805077
2.553,2.793779
2.554,2.772151
2.555,2.746972
2.556,2.721793
2.557,2.700488
2.558,2.688221
2.559,2.685961
2.56,2.698228
2.561,2.717919
2.562,2.744389
2.563,2.772474
2.564,2.799912
2.565,2.820895
2.566,2.837035
2.567,2.846397
2.568,2.846074
2.569,2.833162
2.57,2.807983
2.571,2.770537
2.572,2.727281
2.573,2.681765
2.574,2.643028
2.575,2.614944
2.576,2.600417
2.577,2.60074
2.578,2.613975
2.579,2.6398
2.58,2.675631
2.581,2.717919
2.582,2.76053
2.583,2.792811
2.584,2.816053
2.585,2.829288
2.586,2.828319
2.587,2.815084
2.588,2.792165
2.589,2.763758
2.59,2.730832
2.591,2.696937
2.592,2.666916
2.593,2.644642
2.594,2.633989
2.595,2.631407
2.596,2.636895
2.597,2.647224
2.598,2.660782
2.599,2.674663
2.6,2.687575
2.601,2.697905
2.602,2.70533
2.603,2.703393
2.604,2.690803
2.605,2.671758
2.606,2.650775
2.607,2.634635
2.608,2.628179
2.609,2.636249
2.61,2.657554
2.611,2.68241
2.612,2.709203
2.613,2.735028
2.614,2.753751
2.615,2.767309
2.616,2.770537
2.617,2.763758
2.618,2.750523
2.619,2.729218
2.62,2.699196
2.621,2.659814
2.622,2.614944
2.623,2.575238
2.624,2.547154
2.625,2.530691
2.626,2.530368
2.627,2.546186
2.628,2.577821
2.629,2.614944
2.63,2.648516
2.631,2.680796
2.632,2.714691
2.633,2.755365
2.634,2.794102
2.635,2.82154
2.636,2.833162
2.637,2.823477
2.638,2.787968
2.639,2.733737
2.64,2.668207
2.641,2.598803
2.642,2.539407
2.643,2.498087
2.644,2.477105
2.645,2.474845
2.646,2.487435
2.647,2.509708
2.648,2.540698
2.649,2.579112
2.65,2.629147
2.651,2.687253
2.652,2.747295
2.653,2.795393
2.654,2.812502
2.655,2.800881
2.656,2.763112
2.657,2.707912
2.658,2.643028
2.659,2.577175
2.66,2.522944
2.661,2.482593
2.662,2.466775
2.663,2.475814
2.664,2.49615
2.665,2.512614
2.666,2.520684
2.667,2.528431
2.668,2.540375
2.669,2.550059
2.67,2.551996
2.671,2.547154
2.672,2.537793
2.673,2.52488
2.674,2.520684
2.675,2.524558
2.676,2.525203
2.677,2.528754
2.678,2.548768
2.679,2.573947
2.68,2.588796
2.681,2.59493
2.682,2.595898
2.683,2.599126
2.684,2.614298
2.685,2.642705
2.686,2.662074
2.687,2.656586
2.688,2.623659
2.689,2.58008
2.69,2.546831
2.691,2.548445
2.692,2.588473
2.693,2.640123
2.694,2.689189
2.695,2.744712
2.696,2.817667
2.697,2.905793
2.698,2.995211
2.699,3.068165
2.7,3.108516
2.701,3.108839
2.702,3.071071
2.703,2.987786
2.704,2.855112
2.705,2.711463
2.706,2.579758
2.707,2.46968
2.708,2.404796
2.709,2.415449
2.71,2.501315
2.711,2.602677
2.712,2.658845
2.713,2.662719
2.714,2.656263
2.715,2.684993
2.716,2.781512
2.717,2.940979
2.718,3.134341
2.719,3.304783
2.72,3.405499
2.721,3.415829
2.722,3.331254
2.723,3.180825
2.724,2.982299
2.725,2.782804
2.726,2.608165
2.727,2.476459
2.728,2.404473
2.729,2.379617
2.73,2.383491
2.731,2.398017
2.732,2.419322
2.733,2.447407
2.734,2.491631
2.735,2.518747
2.736,2.495182
2.737,2.424487
2.738,2.333778
2.739,2.266312
2.74,2.227252
2.741,2.20401
2.742,2.225961
2.743,2.303757
2.744,2.432235
2.745,2.611716
2.746,2.808951
2.747,2.963253
2.748,3.051057
2.749,3.057513
2.75,2.981007
2.751,2.863183
2.752,2.761498
2.753,2.695
2.754,2.625274
2.755,2.519715
2.756,2.395435
2.757,2.258241
2.758,2.098452
2.759,1.975462
2.76,1.950283
2.761,2.02808
2.762,2.16721
2.763,2.300852
2.764,2.417063
2.765,2.533596
2.766,2.671435
2.767,2.821218
2.768,2.938397
2.769,2.991014
2.77,2.935169
2.771,2.755042
2.772,2.510031
2.773,2.23855
2.774,1.954479
2.775,1.680739
2.776,1.43024
2.777,1.239461
2.778,1.150043
2.779,1.190071
2.78,1.314675
2.781,1.476079
2.782,1.664921
2.783,1.915097
2.784,2.189161
2.785,2.463547
2.786,2.682733
2.787,2.809919
2.788,2.839295
2.789,2.761175
2.79,2.607842
2.791,2.434171
2.792,2.306017
2.793,2.233385
2.794,2.19368
2.795,2.173343
2.796,2.147196
2.797,2.073595
2.798,1.957385
2.799,1.815672
2.8,1.650718
2.801,1.476079
2.802,1.341145
2.803,1.287236
2.804,1.317257
2.805,1.423138
2.806,1.557749
2.807,1.655883
2.808,1.743363
2.809,1.845048
2.81,1.937048
2.811,2.029371
2.812,2.170438
2.813,2.421259
2.814,2.762144
2.815,3.105611
2.816,3.378061
2.817,3.506861
2.818,3.523324
2.819,3.426482
2.82,3.188895
2.821,2.839295
2.822,2.427715
2.823,1.968037
2.824,1.466072
2.825,0.950225
2.826,0.466014
2.827,0.036357
2.828,-0.001411
2.829,-0.001088
2.83,-0.000766
2.831,-0.000766
2.832,0.136105
2.833,0.381761
2.834,0.695207
2.835,1.093875
2.836,1.583574
2.837,2.092964
2.838,2.536501
2.839,2.868993
2.84,3.103029
2.841,3.248292
2.842,3.300264
2.843,3.239253
2.844,3.110453
2.845,2.943239
2.846,2.696291
2.847,2.350564
2.848,1.958999
2.849,1.586156
2.85,1.233005
2.851,0.915685
2.852,0.635488
2.853,0.371754
2.854,0.156442
2.855,0.033775
2.856,0.038294
2.857,0.156119
2.858,0.346898
2.859,0.603853
2.86,0.928597
2.861,1.272387
2.862,1.596809
2.863,1.85796
2.864,2.094578
2.865,2.277933
2.866,2.417063
2.867,2.52488
2.868,2.57427
2.869,2.595252
2.87,2.581694
2.871,2.508417
2.872,2.338943
2.873,2.085862
2.874,1.826002
2.875,1.596163
2.876,1.385693
2.877,1.179096
2.878,0.97831
2.879,0.799797
2.88,0.657116
2.881,0.64033
2.882,0.7772
2.883,0.986703
2.884,1.167798
2.885,1.304022
2.886,1.386661
2.887,1.40958
2.888,1.38311
2.889,1.335657
2.89,1.29111
2.891,1.254633
2.892,1.214282
2.893,1.178127
2.894,1.138099
2.895,1.096134
2.896,1.057397
2.897,1.040934
2.898,1.050618
2.899,1.110983
2.9,1.183615
2.901,1.252696
2.902,1.302085
2.903,1.346633
2.904,1.398605
2.905,1.447672
2.906,1.495124
2.907,1.590675
2.908,1.767897
2.909,1.932851
2.91,2.008388
2.911,2.001609
2.912,1.927364
2.913,1.814058
2.914,1.691069
2.915,1.551293
2.916,1.377945
2.917,1.198787
2.918,1.041903
2.919,0.883727
2.92,0.673902
2.921,0.433733
2.922,0.201312
2.923,0.000203
2.924,-0.001411
2.925,-0.001411
2.926,-0.000766
2.927,0.014406
2.928,0.186463
2.929,0.4276
2.93,0.697144
2.931,1.009622
2.932,1.34631
2.933,1.654914
2.934,1.863771
2.935,1.975785
2.936,1.981918
2.937,1.861511
2.938,1.645553
2.939,1.376331
2.94,1.095489
2.941,0.829818
2.942,0.628063
2.943,0.48054
2.944,0.374337
2.945,0.304287
2.946,0.245214
2.947,0.157733
2.948,0.058308
2.949,0.000848
2.95,-0.001411
2.951,-0.000443
2.952,-0.000766
2.953,-0.001088
2.954,0.010533
2.955,0.029901
2.956,0.027964
2.957,0.026027
2.958,0.056371
2.959,0.107375
2.96,0.161929
2.961,0.2068
2.962,0.242308
2.963,0.285887
2.964,0.357551
2.965,0.494098
2.966,0.684555
2.967,0.896962
2.968,1.074183
2.969,1.168443
2.97,1.249791
2.971,1.340822
2.972,1.345342
2.973,1.213959
2.974,1.022211
2.975,0.787207
2.976,0.496681
2.977,0.170645
2.978,-0.001088
2.979,-0.001088
2.98,-0.000766
2.981,-0.001088
2.982,-0.001088
2.983,-0.001411
2.984,-0.001411
2.985,-0.001411
2.986,-0.001088
2.987,-0.001088
2.988,-0.000766
2.989,-0.001088
2.99,-0.001411
2.991,-0.001088
2.992,-0.001088
2.993,-0.000443
2.994,0.09414
2.995,0.214547
2.996,0.309452
2.997,0.344316
2.998,0.326884
2.999,0.25748
3.0,0.103178
3.001,-0.000766
3.002,-0.001088
3.003,-0.00012
3.004,-0.000443
3.005,0.03442
3.006,0.088006
3.007,0.11254
3.008,0.112863
3.009,0.096722
3.01,0.072834
3.011,0.033452
3.012,-0.001088
3.013,-0.001411
3.014,-0.001411
3.015,-0.000766
3.016,-0.000766
3.017,-0.001088
3.018,-0.001088
3.019,-0.000766
3.02,-0.000443
3.021,-0.001088
3.022,-0.001088
3.023,-0.001088
3.024,-0.001088
3.025,0.00214
3.026,0.023768
3.027,0.009241
3.028,-0.001088
3.029,-0.000766
3.03,-0.000766
3.031,-0.000766
3.032,-0.001088
3.033,-0.001088
3.034,-0.001088
3.035,-0.001088
3.036,-0.001088
3.037,-0.000443
3.038,-0.001088
3.039,-0.001411
3.04,-0.000443
3.041,-0.001411
3.042,-0.001088
3.043,-0.001088
3.044,-0.001088
3.045,-0.000766
3.046,-0.001088
3.047,-0.001411
3.048,-0.000766
3.049,-0.001088
3.05,-0.001088
3.051,-0.001411
3.052,-0.000766
3.053,-0.001088
3.054,-0.001411
3.055,-0.001088
3.056,-0.001088
3.057,-0.001411
3.058,-0.000766
3.059,-0.001088
3.06,-0.000443
3.061,-0.001088
3.062,-0.001734
3.063,-0.001411
3.064,-0.001411
3.065,-0.001411
3.066,-0.001088
3.067,-0.001411
3.068,-0.001088
3.069,-0.001734
3.07,-0.001734
3.071,-0.000766
3.072,-0.001088
3.073,-0.001411
3.074,-0.001411
3.075,-0.001411
3.076,-0.000766
3.077,-0.001088
3.078,-0.001088
3.079,-0.001088
3.08,-0.001411
3.081,-0.001411
3.082,-0.001088
3.083,-0.001088
3.084,-0.001088
3.085,-0.001088
3.086,-0.001411
3.087,-0.001088
3.088,-0.001734
3.089,-0.001734
3.09,-0.001411
3.091,-0.001734
3.092,-0.001734
3.093,-0.001734
3.094,-0.001411
3.095,-0.001411
3.096,-0.001088
3.097,-0.001411
3.098,-0.001088
3.099,-0.001734
3.1,-0.001411
3.101,-0.001411
3.102,-0.001411
3.103,-0.001411
3.104,-0.001411
3.105,-0.001088
3.106,-0.001088
3.107,-0.001411
3.108,-0.001411
3.109,-0.002057
3.11,-0.001088
3.111,-0.001088
3.112,-0.001088
3.113,-0.000766
3.114,-0.001088
3.115,-0.000443
3.116,-0.001734
3.117,-0.001088
3.118,-0.000766
3.119,-0.001411
3.12,-0.001088
3.121,-0.000766
3.122,-0.001411
3.123,-0.001411
3.124,-0.001088
3.125,-0.001411
3.126,-0.000766
3.127,-0.001411
3.128,-0.000766
3.129,-0.001088
3.13,-0.001411
3.131,-0.001734
3.132,-0.001088
3.133,-0.001088
3.134,-0.000766
3.135,-0.001088
3.136,-0.000766
3.137,-0.001088
3.138,-0.001411
3.139,-0.000766
3.14,-0.001088
3.141,-0.001088
3.142,-0.001411
3.143,-0.001088
3.144,-0.001411
3.145,-0.000766
3.146,-0.001411
3.147,-0.001411
3.148,-0.001088
3.149,-0.001088
3.15,-0.001734
3.151,-0.001088
3.152,-0.001088
3.153,-0.001411
3.154,-0.001411
3.155,-0.001088
3.156,-0.001088
3.157,-0.001088
3.158,-0.001411
3.159,-0.001734
3.16,-0.001088
3.161,-0.001088
3.162,-0.001088
3.163,-0.001088
3.164,-0.001088
3.165,-0.000766
3.166,-0.001411
3.167,-0.001088
3.168,-0.001411
3.169,-0.001088
3.17,-0.001411
3.171,-0.001734
3.172,-0.001734
3.173,-0.001088
3.174,-0.000766
3.175,-0.001411
3.176,-0.001088
3.177,-0.001411
3.178,-0.000766
3.179,-0.001734
3.18,-0.000766
3.181,-0.001088
3.182,-0.001088
3.183,-0.001088
3.184,-0.001411
3.185,-0.001411
3.186,-0.001088
3.187,-0.001088
3.188,-0.000766
3.189,-0.001411
3.19,-0.001411
3.191,-0.001088
3.192,-0.000443
3.193,-0.001411
3.194,-0.001411
3.195,-0.001088
3.196,-0.001734
3.197,-0.001411
3.198,-0.001088
3.199,-0.001411
3.2,-0.001411
3.201,-0.001088
3.202,-0.000766
3.203,-0.001088
3.204,-0.001088
3.205,-0.001088
3.206,-0.001088
3.207,-0.001411
3.208,-0.001088
3.209,-0.001411
3.21,-0.001088
3.211,-0.001411
3.212,-0.001088
3.213,-0.001734
3.214,-0.001411
3.215,-0.001088
3.216,-0.000766
3.217,-0.001411
3.218,-0.001411
3.219,-0.001088
3.22,-0.001088
3.221,-0.001411
3.222,-0.001088
3.223,-0.000443
3.224,-0.000766
3.225,-0.001411
3.226,-0.000443
3.227,-0.000443
3.228,-0.001088
3.229,-0.000766
3.23,-0.001088
3.231,-0.000766
3.232,0.003431
3.233,0.024413
3.234,0.03894
3.235,0.048624
3.236,0.053789
3.237,0.077031
3.238,0.134491
3.239,0.190659
3.24,0.206154
3.241,0.189691
3.242,0.154182
3.243,0.111249
3.244,0.075094
3.245,0.059277
3.246,0.058631
3.247,0.057985
3.248,0.049269
3.249,0.050238
3.25,0.065733
3.251,0.086715
3.252,0.125775
3.253,0.190982
3.254,0.27814
3.255,0.349158
3.256,0.400161
3.257,0.450842
3.258,0.499263
3.259,0.530253
3.26,0.547039
3.261,0.558983
3.262,0.556077
3.263,0.518309
3.264,0.449551
3.265,0.388217
3.266,0.367235
3.267,0.350126
3.268,0.311066
3.269,0.266842
3.27,0.255221
3.271,0.265551
3.272,0.266842
3.273,0.263614
3.274,0.272007
3.275,0.296863
3.276,0.340119
3.277,0.398547
3.278,0.468596
3.279,0.551558
3.28,0.648077
3.281,0.750085
3.282,0.843699
3.283,0.916008
3.284,0.960232
3.285,0.966366
3.286,0.938927
3.287,0.880822
3.288,0.804639
3.289,0.720386
3.29,0.641298
3.291,0.584162
3.292,0.547361
3.293,0.521537
3.294,0.507656
3.295,0.504105
3.296,0.507011
3.297,0.525411
3.298,0.559628
3.299,0.604498
3.3,0.659376
3.301,0.722323
3.302,0.791404
3.303,0.864358
3.304,0.937313
3.305,1.008653
3.306,1.076766
3.307,1.15424
3.308,1.260443
3.309,1.38311
3.31,1.499966
3.311,1.595518
3.312,1.656205
3.313,1.687518
3.314,1.68784
3.315,1.649104
3.316,1.565819
3.317,1.426044
3.318,1.263994
3.319,1.100331
3.32,0.934731
3.321,0.771067
3.322,0.606112
3.323,0.440835
3.324,0.29428
3.325,0.197761
3.326,0.175164
3.327,0.227459
3.328,0.337537
3.329,0.492161
3.33,0.690688
3.331,0.910197
3.332,1.148429
3.333,1.410872
3.334,1.681062
3.335,1.91316
3.336,2.076178
3.337,2.165918
3.338,2.174634
3.339,2.114915
3.34,2.002578
3.341,1.854086
3.342,1.686872
3.343,1.496093
3.344,1.292078
3.345,1.087741
3.346,0.899544
3.347,0.73459
3.348,0.605467
3.349,0.516049
3.35,0.473439
3.351,0.476667
3.352,0.530575
3.353,0.629355
3.354,0.77139
3.355,0.947643
3.356,1.148429
3.357,1.360514
3.358,1.570016
3.359,1.762409
3.36,1.924458
3.361,2.047125
3.362,2.129441
3.363,2.154297
3.364,2.121694
3.365,2.040992
3.366,1.922844
3.367,1.785006
3.368,1.6349
3.369,1.47737
3.37,1.316612
3.371,1.16005
3.372,1.026408
3.373,0.92892
3.374,0.880822
3.375,0.88179
3.376,0.932471
3.377,1.028345
3.378,1.162955
3.379,1.324359
3.38,1.499644
3.381,1.673314
3.382,1.828907
3.383,1.96029
3.384,2.061006
3.385,2.123953
3.386,2.140417
3.387,2.114269
3.388,2.046157
3.389,1.945764
3.39,1.829876
3.391,1.716248
3.392,1.620374
3.393,1.555167
3.394,1.528696
3.395,1.527728
3.396,1.533216
3.397,1.549033
3.398,1.572921
3.399,1.603265
3.4,1.639097
3.401,1.683967
3.402,1.73949
3.403,1.801792
3.404,1.869258
3.405,1.942213
3.406,2.019041
3.407,2.081666
3.408,2.132024
3.409,2.168824
3.41,2.191097
3.411,2.185287
3.412,2.157848
3.413,2.135574
3.414,2.120725
3.415,2.111041
3.416,2.097806
3.417,2.061329
3.418,2.01323
3.419,1.971911
3.42,1.935434
3.421,1.898634
3.422,1.853441
3.423,1.816318
3.424,1.799855
3.425,1.80857
3.426,1.847953
3.427,1.916388
3.428,2.010002
3.429,2.116529
3.43,2.217568
3.431,2.300852
3.432,2.36735
3.433,2.418031
3.434,2.457091
3.435,2.472586
3.436,2.459996
3.437,2.422873
3.438,2.371547
3.439,2.318284
3.44,2.274059
3.441,2.237904
3.442,2.213048
3.443,2.194971
3.444,2.184318
3.445,2.189161
3.446,2.20982
3.447,2.239841
3.448,2.278901
3.449,2.323126
3.45,2.369287
3.451,2.408992
3.452,2.442564
3.453,2.467421
3.454,2.48227
3.455,2.486143
3.456,2.478073
3.457,2.465807
3.458,2.449343
3.459,2.435785
3.46,2.426424
3.461,2.422873
3.462,2.417063
3.463,2.411575
3.464,2.408024
3.465,2.407378
3.466,2.408992
3.467,2.410607
3.468,2.413189
3.469,2.413189
3.47,2.411898
3.471,2.406087
3.472,2.402859
3.473,2.405442
3.474,2.41448
3.475,2.431589
3.476,2.454831
3.477,2.483238
3.478,2.515519
3.479,2.545863
3.48,2.572656
3.481,2.593961
3.482,2.608488
3.483,2.611716
3.484,2.607842
3.485,2.600095
3.486,2.582663
3.487,2.55587
3.488,2.525526
3.489,2.496796
3.49,2.475491
3.491,2.466452
3.492,2.473554
3.493,2.491954
3.494,2.525526
3.495,2.572656
3.496,2.624628
3.497,2.67434
3.498,2.716628
3.499,2.752782
3.5,2.780544
3.501,2.796361
3.502,2.79507
3.503,2.777316
3.504,2.745358
3.505,2.703393
3.506,2.658523
3.507,2.617849
3.508,2.589765
3.509,2.579112
3.51,2.587828
3.511,2.615266
3.512,2.6582
3.513,2.709849
3.514,2.763435
3.515,2.816376
3.516,2.864151
3.517,2.910635
3.518,2.950341
3.519,2.979071
3.52,2.988432
3.521,2.978748
3.522,2.9526
3.523,2.92032
3.524,2.889653
3.525,2.869639
3.526,2.861246
3.527,2.865442
3.528,2.879646
3.529,2.893204
3.53,2.902888
3.531,2.910313
3.532,2.917092
3.533,2.924516
3.534,2.932586
3.535,2.940334
3.536,2.946144
3.537,2.948081
3.538,2.950986
3.539,2.957765
3.54,2.973906
3.541,3.000376
3.542,3.036207
3.543,3.07785
3.544,3.121429
3.545,3.162102
3.546,3.191478
3.547,3.207618
3.548,3.211169
3.549,3.20665
3.55,3.192769
3.551,3.173723
3.552,3.146608
3.553,3.113358
3.554,3.078818
3.555,3.048797
3.556,3.030074
3.557,3.029751
3.558,3.052348
3.559,3.097864
3.56,3.160166
3.561,3.232152
3.562,3.308334
3.563,3.380966
3.564,3.450692
3.565,3.515577
3.566,3.570131
3.567,3.613065
3.568,3.644054
3.569,3.656644
3.57,3.651156
3.571,3.629528
3.572,3.594019
3.573,3.55625
3.574,3.522356
3.575,3.492657
3.576,3.464896
3.577,3.42971
3.578,3.395169
3.579,3.37225
3.58,3.36644
3.581,3.378706
3.582,3.40324
3.583,3.434552
3.584,3.472966
3.585,3.510089
3.586,3.543984
3.587,3.576264
3.588,3.606608
3.589,3.635984
3.59,3.6631
3.591,3.691507
3.592,3.720559
3.593,3.749935
3.594,3.776405
3.595,3.796096
3.596,3.803198
3.597,3.799647
3.598,3.78157
3.599,3.751549
3.6,3.712812
3.601,3.67117
3.602,3.63437
3.603,3.604026
3.604,3.590145
3.605,3.599184
3.606,3.635015
3.607,3.697963
3.608,3.781247
3.609,3.867437
3.61,3.944265
3.611,3.999788
3.612,4.033683
3.613,4.043367
3.614,4.038202
3.615,4.024644
3.616,4.003339
3.617,3.978483
3.618,3.955563
3.619,3.932644
3.62,3.909725
3.621,3.882286
3.622,3.844518
3.623,3.803521
3.624,3.764138
3.625,3.732826
3.626,3.717977
3.627,3.7183
3.628,3.729921
3.629,3.751872
3.63,3.785121
3.631,3.832896
3.632,3.897781
3.633,3.979774
3.634,4.075002
3.635,4.167648
3.636,4.233178
3.637,4.257066
3.638,4.23802
3.639,4.184434
3.64,4.118581
3.641,4.049823
3.642,3.979774
3.643,3.911984
3.644,3.852911
3.645,3.80804
3.646,3.780602
3.647,3.770595
3.648,3.777374
3.649,3.79997
3.65,3.835479
3.651,3.870988
3.652,3.901654
3.653,3.931353
3.654,3.960083
3.655,3.992686
3.656,4.024967
3.657,4.054988
3.658,4.085978
3.659,4.11955
3.66,4.15409
3.661,4.188308
3.662,4.216392
3.663,4.232209
3.664,4.236083
3.665,4.228336
3.666,4.207676
3.667,4.180237
3.668,4.142146
3.669,4.098244
3.67,4.050792
3.671,4.007858
3.672,3.973963
3.673,3.953949
3.674,3.952658
3.675,3.974932
3.676,4.018188
3.677,4.073711
3.678,4.131493
3.679,4.187662
3.68,4.239957
3.681,4.286118
3.682,4.325501
3.683,4.353908
3.684,4.368434
3.685,4.370048
3.686,4.35649
3.687,4.33002
3.688,4.295802
3.689,4.258034
3.69,4.226076
3.691,4.206385
3.692,4.205094
3.693,4.228336
3.694,4.27708
3.695,4.346483
3.696,4.424603
3.697,4.49788
3.698,4.55308
3.699,4.58762
3.7,4.605052
3.701,4.61054
3.702,4.610217
3.703,4.605052
3.704,4.594722
3.705,4.577291
3.706,4.56115
3.707,4.549529
3.708,4.542105
3.709,4.544687
3.71,4.553726
3.711,4.565992
3.712,4.582778
3.713,4.598596
3.714,4.608603
3.715,4.607634
3.716,4.60602
3.717,4.606343
3.718,4.604729
3.719,4.593108
3.72,4.562441
3.721,4.517571
3.722,4.475606
3.723,4.44849
3.724,4.441389
3.725,4.455269
3.726,4.48529
3.727,4.528869
3.728,4.582133
3.729,4.638301
3.73,4.691564
3.731,4.734175
3.732,4.762259
3.733,4.7784
3.734,4.783887
3.735,4.777431
3.736,4.762259
3.737,4.736112
3.738,4.706736
3.739,4.678975
3.74,4.656701
3.741,4.642175
3.742,4.638301
3.743,4.645403
3.744,4.662189
3.745,4.687045
3.746,4.715129
3.747,4.740631
3.748,4.759031
3.749,4.769038
3.75,4.772912
3.751,4.773235
3.752,4.769684
3.753,4.761936
3.754,4.750315
3.755,4.730624
3.756,4.707705
3.757,4.692856
3.758,4.693178
3.759,4.7048
3.76,4.726105
3.761,4.748379
3.762,4.767747
3.763,4.778722
3.764,4.782273
3.765,4.782919
3.766,4.781628
3.767,4.777431
3.768,4.770652
3.769,4.757417
3.77,4.73708
3.771,4.711579
3.772,4.687045
3.773,4.667677
3.774,4.656378
3.775,4.656378
3.776,4.663157
3.777,4.677684
3.778,4.694147
3.779,4.712547
3.78,4.728042
3.781,4.740954
3.782,4.749347
3.783,4.753543
3.784,4.753866
3.785,4.750315
3.786,4.741277
3.787,4.727396
3.788,4.709964
3.789,4.693824
3.79,4.680589
3.791,4.675424
3.792,4.678007
3.793,4.688982
3.794,4.704477
3.795,4.724491
3.796,4.745796
3.797,4.765165
3.798,4.781628
3.799,4.791958
3.8,4.796154
3.801,4.790344
3.802,4.778077
3.803,4.762259
3.804,4.743536
3.805,4.723522
3.806,4.703508
3.807,4.688982
3.808,4.686077
3.809,4.692533
3.81,4.704477
3.811,4.722877
3.812,4.744828
3.813,4.76807
3.814,4.787438
3.815,4.7968
3.816,4.794217
3.817,4.781305
3.818,4.759677
3.819,4.73127
3.82,4.698666
3.821,4.664126
3.822,4.629908
3.823,4.602792
3.824,4.587943
3.825,4.588266
3.826,4.604084
3.827,4.632491
3.828,4.668322
3.829,4.706414
3.83,4.741277
3.831,4.768715
3.832,4.785824
3.833,4.790989
3.834,4.788084
3.835,4.777431
3.836,4.757094
3.837,4.728365
3.838,4.694147
3.839,4.657347
3.84,4.624098
3.841,4.59795
3.842,4.584715
3.843,4.581487
3.844,4.587298
3.845,4.599564
3.846,4.615059
3.847,4.633782
3.848,4.651214
3.849,4.664771
3.85,4.67607
3.851,4.68188
3.852,4.682526
3.853,4.674133
3.854,4.659929
3.855,4.641852
3.856,4.62442
3.857,4.611831
3.858,4.604729
3.859,4.604729
3.86,4.612154
3.861,4.624098
3.862,4.637656
3.863,4.652828
3.864,4.663803
3.865,4.668645
3.866,4.668
3.867,4.662512
3.868,4.650891
3.869,4.628617
3.87,4.599887
3.871,4.564378
3.872,4.528869
3.873,4.499494
3.874,4.480126
3.875,4.472701
3.876,4.480448
3.877,4.50014
3.878,4.524996
3.879,4.550175
3.88,4.573094
3.881,4.592463
3.882,4.607312
3.883,4.612477
3.884,4.606666
3.885,4.589234
3.886,4.56115
3.887,4.528869
3.888,4.49562
3.889,4.463985
3.89,4.438483
3.891,4.421697
3.892,4.421052
3.893,4.435255
3.894,4.458497
3.895,4.484322
3.896,4.507564
3.897,4.528224
3.898,4.542427
3.899,4.55082
3.9,4.552112
3.901,4.546624
3.902,4.529515
3.903,4.504013
3.904,4.471733
3.905,4.439129
3.906,4.409108
3.907,4.38748
3.908,4.37715
3.909,4.37715
3.91,4.38522
3.911,4.402006
3.912,4.423634
3.913,4.446231
3.914,4.468504
3.915,4.486582
3.916,4.499494
3.917,4.506919
3.918,4.50595
3.919,4.494975
3.92,4.473347
3.921,4.444294
3.922,4.411368
3.923,4.380055
3.924,4.357781
3.925,4.344224
3.926,4.342287
3.927,4.349388
3.928,4.363269
3.929,4.381346
3.93,4.399101
3.931,4.415241
3.932,4.428154
3.933,4.435901
3.934,4.44042
3.935,4.438161
3.936,4.426539
3.937,4.402329
3.938,4.372308
3.939,4.344224
3.94,4.320013
3.941,4.304518
3.942,4.298062
3.943,4.301613
3.944,4.312911
3.945,4.329052
3.946,4.34842
3.947,4.368434
3.948,4.386511
3.949,4.400069
3.95,4.406848
3.951,4.403297
3.952,4.390708
3.953,4.368434
3.954,4.338413
3.955,4.301936
3.956,4.266427
3.957,4.236406
3.958,4.217683
3.959,4.210904
3.96,4.215746
3.961,4.229627
3.962,4.247704
3.963,4.269332
3.964,4.289992
3.965,4.305164
3.966,4.315171
3.967,4.319367
3.968,4.315494
3.969,4.301936
3.97,4.281599
3.971,4.253837
3.972,4.223816
3.973,4.194441
3.974,4.17023
3.975,4.155381
3.976,4.150862
3.977,4.156027
3.978,4.169262
3.979,4.186693
3.98,4.205094
3.981,4.22188
3.982,4.232209
3.983,4.235437
3.984,4.231887
3.985,4.221557
3.986,4.203802
3.987,4.180237
3.988,4.155058
3.989,4.130202
3.99,4.10922
3.991,4.096953
3.992,4.095662
3.993,4.105669
3.994,4.125037
3.995,4.149571
3.996,4.177009
3.997,4.203479
3.998,4.222525
3.999,4.233823
4.0,4.232855
4.001,4.218329
4.002,4.19315
4.003,4.155381
4.004,4.114062
4.005,4.070806
4.006,4.030132
4.007,4.000434
4.008,3.984616
4.009,3.985584
4.01,3.999788
4.011,4.021739
4.012,4.049823
4.013,4.079199
4.014,4.107606
4.015,4.132139
4.016,4.149893
4.017,4.157641
4.018,4.157318
4.019,4.144729
4.02,4.119227
4.021,4.085978
4.022,4.047886
4.023,4.010763
4.024,3.981065
4.025,3.961051
4.026,3.953626
4.027,3.9575
4.028,3.969121
4.029,3.985584
4.03,4.003984
4.031,4.022384
4.032,4.03917
4.033,4.05176
4.034,4.057893
4.035,4.055956
4.036,4.043367
4.037,4.022707
4.038,3.997528
4.039,3.971058
4.04,3.94717
4.041,3.927479
4.042,3.916504
4.043,3.913598
4.044,3.917795
4.045,3.927802
4.046,3.940714
4.047,3.954272
4.048,3.966539
4.049,3.975255
4.05,3.979774
4.051,3.978483
4.052,3.971381
4.053,3.954918
4.054,3.932321
4.055,3.908433
4.056,3.885837
4.057,3.870019
4.058,3.86324
4.059,3.866146
4.06,3.876475
4.061,3.892293
4.062,3.909402
4.063,3.924897
4.064,3.937163
4.065,3.942005
4.066,3.938455
4.067,3.929739
4.068,3.913276
4.069,3.889388
4.07,3.857107
4.071,3.822567
4.072,3.78964
4.073,3.763493
4.074,3.746384
4.075,3.74477
4.076,3.756391
4.077,3.778665
4.078,3.808686
4.079,3.842903
4.08,3.877121
4.081,3.906819
4.082,3.930384
4.083,3.945233
4.084,3.950398
4.085,3.943942
4.086,3.923283
4.087,3.891002
4.088,3.851296
4.089,3.806426
4.09,3.762524
4.091,3.724756
4.092,3.695703
4.093,3.676335
4.094,3.667296
4.095,3.666973
4.096,3.672784
4.097,3.685696
4.098,3.702159
4.099,3.721528
4.1,3.74251
4.101,3.764461
4.102,3.781893
4.103,3.792546
4.104,3.796419
4.105,3.794482
4.106,3.790609
4.107,3.789317
4.108,3.789963
4.109,3.796096
4.11,3.804167
4.111,3.813205
4.112,3.820307
4.113,3.820953
4.114,3.814496
4.115,3.801261
4.116,3.781893
4.117,3.758974
4.118,3.730244
4.119,3.696672
4.12,3.658258
4.121,3.620166
4.122,3.586594
4.123,3.56077
4.124,3.548503
4.125,3.550117
4.126,3.565935
4.127,3.594019
4.128,3.630496
4.129,3.67117
4.13,3.711844
4.131,3.748644
4.132,3.778342
4.133,3.797388
4.134,3.805135
4.135,3.800293
4.136,3.780924
4.137,3.749289
4.138,3.711521
4.139,3.669879
4.14,3.631465
4.141,3.601766
4.142,3.583043
4.143,3.577879
4.144,3.582721
4.145,3.594987
4.146,3.610805
4.147,3.6263
4.148,3.639212
4.149,3.651479
4.15,3.656644
4.151,3.656644
4.152,3.646959
4.153,3.627591
4.154,3.600475
4.155,3.569486
4.156,3.541078
4.157,3.517836
4.158,3.504601
4.159,3.502987
4.16,3.512026
4.161,3.52978
4.162,3.552054
4.163,3.574328
4.164,3.596601
4.165,3.61371
4.166,3.62404
4.167,3.626945
4.168,3.622749
4.169,3.608868
4.17,3.583366
4.171,3.553022
4.172,3.520419
4.173,3.491689
4.174,3.470061
4.175,3.458763
4.176,3.45844
4.177,3.467801
4.178,3.483619
4.179,3.504278
4.18,3.524938
4.181,3.543015
4.182,3.557864
4.183,3.567871
4.184,3.570454
4.185,3.565612
4.186,3.551085
4.187,3.529457
4.188,3.502019
4.189,3.474903
4.19,3.451015
4.191,3.434875
4.192,3.430033
4.193,3.433261
4.194,3.442945
4.195,3.457148
4.196,3.47232
4.197,3.484587
4.198,3.494917
4.199,3.501696
4.2,3.503633
4.201,3.502664
4.202,3.492335
4.203,3.472966
4.204,3.44811
4.205,3.421317
4.206,3.397752
4.207,3.379675
4.208,3.368376
4.209,3.365471
4.21,3.371927
4.211,3.385485
4.212,3.403562
4.213,3.423577
4.214,3.441977
4.215,3.457471
4.216,3.468124
4.217,3.473612
4.218,3.471352
4.219,3.459731
4.22,3.439071
4.221,3.411955
4.222,3.382903
4.223,3.357401
4.224,3.336741
4.225,3.327703
4.226,3.329317
4.227,3.335773
4.228,3.349331
4.229,3.363534
4.23,3.374833
4.231,3.382903
4.232,3.386131
4.233,3.383548
4.234,3.377092
4.235,3.364503
4.236,3.344166
4.237,3.318341
4.238,3.287997
4.239,3.261527
4.24,3.24119
4.241,3.232797
4.242,3.235057
4.243,3.249583
4.244,3.27218
4.245,3.299941
4.246,3.32738
4.247,3.35385
4.248,3.375155
4.249,3.39291
4.25,3.403562
4.251,3.405822
4.252,3.396461
4.253,3.374833
4.254,3.342229
4.255,3.303492
4.256,3.264432
4.257,3.231829
4.258,3.209878
4.259,3.201808
4.26,3.206327
4.261,3.221176
4.262,3.243773
4.263,3.269275
4.264,3.294453
4.265,3.314468
4.266,3.329962
4.267,3.336741
4.268,3.334482
4.269,3.321892
4.27,3.298327
4.271,3.266369
4.272,3.231829
4.273,3.199225
4.274,3.174046
4.275,3.15952
4.276,3.157906
4.277,3.168559
4.278,3.186959
4.279,3.211815
4.28,3.239253
4.281,3.264432
4.282,3.283155
4.283,3.295745
4.284,3.301232
4.285,3.296068
4.286,3.278959
4.287,3.25152
4.288,3.217625
4.289,3.182762
4.29,3.152741
4.291,3.129822
4.292,3.118201
4.293,3.117878
4.294,3.123688
4.295,3.135632
4.296,3.150481
4.297,3.166622
4.298,3.182439
4.299,3.195997
4.3,3.206004
4.301,3.209878
4.302,3.207618
4.303,3.195352
4.304,3.17792
4.305,3.15952
4.306,3.142411
4.307,3.127885
4.308,3.119492
4.309,3.119492
4.31,3.123043
4.311,3.132404
4.312,3.142734
4.313,3.153064
4.314,3.161457
4.315,3.166299
4.316,3.168559
4.317,3.167267
4.318,3.163071
4.319,3.152741
4.32,3.137569
4.321,3.118201
4.322,3.100123
4.323,3.085597
4.324,3.076558
4.325,3.077527
4.326,3.084629
4.327,3.098509
4.328,3.117232
4.329,3.135632
4.33,3.150804
4.331,3.161457
4.332,3.16533
4.333,3.163394
4.334,3.156615
4.335,3.142411
4.336,3.123688
4.337,3.097541
4.338,3.070102
4.339,3.045569
4.34,3.027492
4.341,3.021036
4.342,3.0262
4.343,3.042018
4.344,3.064937
4.345,3.091085
4.346,3.115941
4.347,3.136601
4.348,3.149513
4.349,3.155646
4.35,3.152095
4.351,3.139183
4.352,3.114973
4.353,3.080109
4.354,3.036853
4.355,2.990692
4.356,2.950341
4.357,2.921934
4.358,2.904179
4.359,2.899337
4.36,2.908699
4.361,2.929358
4.362,2.959056
4.363,2.993597
4.364,3.028783
4.365,3.064292
4.366,3.097541
4.367,3.124011
4.368,3.139506
4.369,3.139829
4.37,3.12498
4.371,3.098187
4.372,3.064615
4.373,3.028137
4.374,2.992951
4.375,2.964867
4.376,2.944853
4.377,2.936137
4.378,2.936783
4.379,2.94227
4.38,2.950986
4.381,2.960025
4.382,2.967772
4.383,2.975842
4.384,2.98133
4.385,2.982944
4.386,2.974874
4.387,2.957765
4.388,2.933877
4.389,2.90999
4.39,2.895786
4.391,2.893204
4.392,2.899983
4.393,2.911927
4.394,2.930327
4.395,2.951309
4.396,2.969064
4.397,2.982299
4.398,2.989078
4.399,2.990369
4.4,2.984881
4.401,2.971
4.402,2.948404
4.403,2.91806
4.404,2.883197
4.405,2.85027
4.406,2.822509
4.407,2.806046
4.408,2.80314
4.409,2.81347
4.41,2.834776
4.411,2.864474
4.412,2.899337
4.413,2.933555
4.414,2.962285
4.415,2.981976
4.416,2.991014
4.417,2.991337
4.418,2.981653
4.419,2.957765
4.42,2.922902
4.421,2.880614
4.422,2.838326
4.423,2.804754
4.424,2.780867
4.425,2.771183
4.426,2.773765
4.427,2.786354
4.428,2.806046
4.429,2.829288
4.43,2.853821
4.431,2.876095
4.432,2.891913
4.433,2.904179
4.434,2.90999
4.435,2.909344
4.436,2.899014
4.437,2.880614
4.438,2.859309
4.439,2.83639
4.44,2.817021
4.441,2.804109
4.442,2.800558
4.443,2.803786
4.444,2.814762
4.445,2.826383
4.446,2.839941
4.447,2.852853
4.448,2.864474
4.449,2.873512
4.45,2.877063
4.451,2.874804
4.452,2.866088
4.453,2.852207
4.454,2.835744
4.455,2.818958
4.456,2.805723
4.457,2.799267
4.458,2.801526
4.459,2.81347
4.46,2.834453
4.461,2.858341
4.462,2.882551
4.463,2.900306
4.464,2.908053
4.465,2.907084
4.466,2.8974
4.467,2.879646
4.468,2.854467
4.469,2.823155
4.47,2.785063
4.471,2.746326
4.472,2.715014
4.473,2.698874
4.474,2.704361
4.475,2.720179
4.476,2.743744
4.477,2.774088
4.478,2.807014
4.479,2.838004
4.48,2.860277
4.481,2.875772
4.482,2.882551
4.483,2.880614
4.484,2.87093
4.485,2.852207
4.486,2.828319
4.487,2.799912
4.488,2.772151
4.489,2.744067
4.49,2.718565
4.491,2.696937
4.492,2.683379
4.493,2.677568
4.494,2.684024
4.495,2.698874
4.496,2.717596
4.497,2.73987
4.498,2.764726
4.499,2.790228
4.5,2.81573
4.501,2.841877
4.502,2.859632
4.503,2.859309
4.504,2.843169
4.505,2.816698
4.506,2.785386
4.507,2.751814
4.508,2.72147
4.509,2.695646
4.51,2.674663
4.511,2.656586
4.512,2.642705
4.513,2.632698
4.514,2.631084
4.515,2.636249
4.516,2.649484
4.517,2.665947
4.518,2.687253
4.519,2.710172
4.52,2.724053
4.521,2.727603
4.522,2.724698
4.523,2.722116
4.524,2.721793
4.525,2.726635
4.526,2.732446
4.527,2.741807
4.528,2.746649
4.529,2.744067
4.53,2.733414
4.531,2.713723
4.532,2.689835
4.533,2.664979
4.534,2.639154
4.535,2.620431
4.536,2.608488
4.537,2.616235
4.538,2.645288
4.539,2.690803
4.54,2.749554
4.541,2.819926
4.542,2.884811
4.543,2.929358
4.544,2.949695
4.545,2.940979
4.546,2.901597
4.547,2.838004
4.548,2.76053
4.549,2.67886
4.55,2.59848
4.551,2.521329
4.552,2.450312
4.553,2.385428
4.554,2.329582
4.555,2.28794
4.556,2.264375
4.557,2.263083
4.558,2.286326
4.559,2.331196
4.56,2.388333
4.561,2.453863
4.562,2.523589
4.563,2.595575
4.564,2.662074
4.565,2.725021
4.566,2.777316
4.567,2.818635
4.568,2.842523
4.569,2.844783
4.57,2.82154
4.571,2.778607
4.572,2.732123
4.573,2.67886
4.574,2.626565
4.575,2.5846
4.576,2.548768
4.577,2.520038
4.578,2.501638
4.579,2.494536
4.58,2.48227
4.581,2.458382
4.582,2.429975
4.583,2.413189
4.584,2.414803
4.585,2.435463
4.586,2.473554
4.587,2.507449
4.588,2.526494
4.589,2.527463
4.59,2.523266
4.591,2.521329
4.592,2.513582
4.593,2.499056
4.594,2.489372
4.595,2.49841
4.596,2.521329
4.597,2.544249
4.598,2.546186
4.599,2.537793
4.6,2.523266
4.601,2.499056
4.602,2.46161
4.603,2.418354
4.604,2.367996
4.605,2.305371
4.606,2.240164
4.607,2.183673
4.608,2.141062
4.609,2.11556
4.61,2.09716
4.611,2.091995
4.612,2.102325
4.613,2.126213
4.614,2.157525
4.615,2.20175
4.616,2.258564
4.617,2.324094
4.618,2.386719
4.619,2.439659
4.62,2.483884
4.621,2.5294
4.622,2.589442
4.623,2.679505
4.624,2.790874
4.625,2.899337
4.626,2.984881
4.627,3.043632
4.628,3.045569
4.629,2.984558
4.63,2.869639
4.631,2.706944
4.632,2.494859
4.633,2.254045
4.634,2.002578
4.635,1.760149
4.636,1.545805
4.637,1.372458
4.638,1.262057
4.639,1.23365
4.64,1.293047
4.641,1.444121
4.642,1.677833
4.643,1.955448
4.644,2.259855
4.645,2.554256
4.646,2.812179
4.647,2.999085
4.648,3.105288
4.649,3.132404
4.65,3.078818
4.651,2.958734
4.652,2.780221
4.653,2.556838
4.654,2.310213
4.655,2.073595
4.656,1.867967
4.657,1.705918
4.658,1.585833
4.659,1.495124
4.66,1.442507
4.661,1.423461
4.662,1.432177
4.663,1.462521
4.664,1.514816
4.665,1.590353
4.666,1.684935
4.667,1.800823
4.668,1.948023
4.669,2.124922
4.67,2.32474
4.671,2.562003
4.672,2.828965
4.673,3.083337
4.674,3.273148
4.675,3.375478
4.676,3.397429
4.677,3.315436
4.678,3.125948
4.679,2.839295
4.68,2.487112
4.681,2.110718
4.682,1.753048
4.683,1.452514
4.684,1.222029
4.685,1.04965
4.686,0.936022
4.687,0.876948
4.688,0.86339
4.689,0.885341
4.69,0.932471
4.691,1.028667
4.692,1.205566
4.693,1.469623
4.694,1.804374
4.695,2.170438
4.696,2.512936
4.697,2.808628
4.698,3.021681
4.699,3.106902
4.7,3.053316
4.701,2.898046
4.702,2.706944
4.703,2.505835
4.704,2.278578
4.705,2.04648
4.706,1.834072
4.707,1.627153
4.708,1.435728
4.709,1.296275
4.71,1.219124
4.711,1.205243
4.712,1.245917
4.713,1.309187
4.714,1.383433
4.715,1.469623
4.716,1.611981
4.717,1.819223
4.718,2.056487
4.719,2.289231
4.72,2.467743
4.721,2.588473
4.722,2.675631
4.723,2.709526
4.724,2.671758
4.725,2.555224
4.726,2.354115
4.727,2.090381
4.728,1.791784
4.729,1.485117
4.73,1.211377
4.731,1.013818
4.732,0.895025
4.733,0.827236
4.734,0.820134
4.735,0.884373
4.736,1.02899
4.737,1.239784
4.738,1.477047
4.739,1.715602
4.74,1.919293
4.741,2.08102
4.742,2.188192
4.743,2.261147
4.744,2.319575
4.745,2.344754
4.746,2.323448
4.747,2.235322
4.748,2.084894
4.749,1.90735
4.75,1.744655
4.751,1.600682
4.752,1.494479
4.753,1.475433
4.754,1.522886
4.755,1.597454
4.756,1.66944
4.757,1.726577
4.758,1.740781
4.759,1.711405
4.76,1.658788
4.761,1.597777
4.762,1.526114
4.763,1.426366
4.764,1.300794
4.765,1.164247
4.766,1.032541
4.767,0.916976
4.768,0.834337
4.769,0.804316
4.77,0.834337
4.771,0.923432
4.772,1.066113
4.773,1.27271
4.774,1.570339
4.775,2.000964
4.776,2.532305
4.777,3.020713
4.778,3.375155
4.779,3.563029
4.78,3.546566
4.781,3.310917
4.782,2.891267
4.783,2.35928
4.784,1.800177
4.785,1.297889
4.786,0.840794
4.787,0.446323
4.788,0.159024
4.789,-0.000766
4.79,-0.001088
4.791,-0.000766
4.792,0.050561
4.793,0.219389
4.794,0.49894
4.795,0.834337
4.796,1.175868
4.797,1.491573
4.798,1.780486
4.799,2.031308
4.8,2.204978
4.801,2.275996
4.802,2.232417
4.803,2.095224
4.804,1.919939
4.805,1.727869
4.806,1.505777
4.807,1.262057
4.808,1.019306
4.809,0.799797
4.81,0.608049
4.811,0.463109
4.812,0.363361
4.813,0.298477
4.814,0.279108
4.815,0.366912
4.816,0.561565
4.817,0.819165
4.818,1.134548
4.819,1.499966
4.82,1.845693
4.821,2.126213
4.822,2.331519
4.823,2.439014
4.824,2.449666
4.825,2.415126
4.826,2.337975
4.827,2.216599
4.828,2.032276
4.829,1.746269
4.83,1.423784
4.831,1.193945
4.832,1.035769
4.833,0.95539
4.834,0.909229
4.835,0.838534
4.836,0.762351
4.837,0.679067
4.838,0.593846
4.839,0.547039
4.84,0.527025
4.841,0.522828
4.842,0.514758
4.843,0.512175
4.844,0.54026
4.845,0.596751
4.846,0.678099
4.847,0.811095
4.848,0.982829
4.849,1.158113
4.85,1.363419
4.851,1.595195
4.852,1.781777
4.853,1.910578
4.854,1.982241
4.855,1.98676
4.856,1.928332
4.857,1.780486
4.858,1.539349
4.859,1.228485
4.86,0.895348
4.861,0.600302
4.862,0.404358
4.863,0.307515
4.864,0.295572
4.865,0.331726
4.866,0.416624
4.867,0.511853
4.868,0.59546
4.869,0.679067
4.87,0.77139
4.871,0.843699
4.872,0.887278
4.873,0.907292
4.874,0.911166
4.875,0.91278
4.876,0.907615
4.877,0.919559
4.878,0.964752
4.879,1.002843
4.88,1.002843
4.881,0.97379
4.882,0.927306
4.883,0.848541
4.884,0.775909
4.885,0.768485
4.886,0.791404
4.887,0.78753
4.888,0.746857
4.889,0.73459
4.89,0.834983
4.891,1.013173
4.892,1.179419
4.893,1.29111
4.894,1.313384
4.895,1.265285
4.896,1.201692
4.897,1.16231
4.898,1.129706
4.899,1.035769
4.9,0.87372
4.901,0.689074
4.902,0.50346
4.903,0.302351
4.904,0.115122
4.905,-0.000766
4.906,-0.000766
4.907,-0.001411
4.908,0.05282
4.909,0.100919
4.91,0.164512
4.911,0.255866
4.912,0.394028
4.913,0.584807
4.914,0.79786
4.915,0.988639
4.916,1.142941
4.917,1.285299
4.918,1.418296
4.919,1.522886
4.92,1.539672
4.921,1.436696
4.922,1.229777
4.923,0.943769
4.924,0.603207
4.925,0.254575
4.926,-0.000766
4.927,-0.001088
4.928,-0.001411
4.929,-0.001411
4.93,-0.001088
4.931,-0.001734
4.932,-0.000443
4.933,-0.001088
4.934,0.017312
4.935,0.058308
4.936,0.135459
4.937,0.268133
4.938,0.456007
4.939,0.660021
4.94,0.861453
4.941,1.039966
4.942,1.211054
4.943,1.335335
4.944,1.360514
4.945,1.321777
4.946,1.283363
4.947,1.222675
4.948,1.085482
4.949,0.906969
4.95,0.723292
4.951,0.559951
4.952,0.38273
4.953,0.169354
4.954,-0.00012
4.955,-0.000443
4.956,-0.001088
4.957,0.01021
4.958,0.04701
4.959,0.095754
4.96,0.144498
4.961,0.175487
4.962,0.21035
4.963,0.253607
4.964,0.313649
4.965,0.346898
4.966,0.330112
4.967,0.321073
4.968,0.338828
4.969,0.339796
4.97,0.282014
4.971,0.180329
4.972,0.087361
4.973,0.024413
4.974,-0.001411
4.975,-0.000766
4.976,0.026996
4.977,0.147726
4.978,0.316877
4.979,0.536709
4.98,0.742337
4.981,0.876625
4.982,0.907292
4.983,0.84273
4.984,0.678099
4.985,0.441481
4.986,0.185494
4.987,-0.001088
4.988,-0.001088
4.989,-0.001088
4.99,-0.000766
4.991,-0.000766
4.992,-0.000766
4.993,0.095431
4.994,0.24134
4.995,0.433088
4.996,0.581256
4.997,0.678744
4.998,0.754927
4.999,0.802057
5.0,0.799797
5.001,0.788176
5.002,0.774941
5.003,0.745565
5.004,0.666477
5.005,0.537354
5.006,0.357551
5.007,0.174196
5.008,0.037003
5.009,-0.001088
5.01,-0.001088
5.011,-0.000443
5.012,-0.000766
5.013,-0.001088
5.014,-0.001411
5.015,-0.000766
5.016,-0.000766
5.017,-0.000766
5.018,0.032161
5.019,0.08381
5.02,0.139333
5.021,0.205831
5.022,0.297186
5.023,0.396288
5.024,0.497004
5.025,0.6116
5.026,0.721355
5.027,0.794632
5.028,0.844022
5.029,0.889537
5.03,0.908906
5.031,0.89212
5.032,0.863713
5.033,0.874366
5.034,0.824008
5.035,0.65066
5.036,0.386603
5.037,0.083164
5.038,-0.000766
5.039,-0.001411
5.04,-0.001411
5.041,-0.001088
5.042,-0.001088
5.043,-0.001734
5.044,-0.001088
5.045,-0.000443
5.046,-0.000766
5.047,-0.001088
5.048,-0.001088
5.049,-0.001411
5.05,-0.001411
5.051,0.047978
5.052,0.15515
5.053,0.250701
5.054,0.302996
5.055,0.308484
5.056,0.31268
5.057,0.315263
5.058,0.332049
5.059,0.37821
5.06,0.455039
5.061,0.559951
5.062,0.67132
5.063,0.760737
5.064,0.788176
5.065,0.756218
5.066,0.712639
5.067,0.671965
5.068,0.58287
5.069,0.455039
5.07,0.360456
5.071,0.314294
5.072,0.253607
5.073,0.179038
5.074,0.12642
5.075,0.108989
5.076,0.085424
5.077,0.029255
5.078,-0.000443
5.079,-0.001411
5.08,-0.000443
5.081,-0.001411
5.082,-0.00012
5.083,0.059277
5.084,0.131908
5.085,0.199698
5.086,0.230687
5.087,0.229719
5.088,0.216161
5.089,0.208414
5.09,0.213256
5.091,0.224877
5.092,0.216807
5.093,0.208414
5.094,0.213579
5.095,0.223908
5.096,0.242631
5.097,0.280722
5.098,0.340119
5.099,0.41146
5.1,0.502491
5.101,0.6116
5.102,0.71393
5.103,0.757186
5.104,0.762997
5.105,0.762997
5.106,0.782043
5.107,0.819811
5.108,0.837565
5.109,0.80819
5.11,0.73233
5.111,0.618702
5.112,0.465691
5.113,0.300737
5.114,0.147726
5.115,0.05282
5.116,0.035389
5.117,0.099627
5.118,0.224231
5.119,0.360779
5.12,0.472793
5.121,0.538968
5.122,0.594814
5.123,0.667446
5.124,0.751376
5.125,0.829818
5.126,0.873397
5.127,0.865004
5.128,0.807867
5.129,0.72652
5.13,0.634842
5.131,0.524119
5.132,0.384344
5.133,0.22294
5.134,0.05734
5.135,-0.000766
5.136,-0.001411
5.137,-0.000443
5.138,-0.001088
5.139,-0.001088
5.14,-0.000766
5.141,0.034098
5.142,0.105115
5.143,0.207122
5.144,0.336568
5.145,0.474407
5.146,0.619025
5.147,0.743306
5.148,0.835306
5.149,0.883727
5.15,0.892443
5.151,0.866618
5.152,0.811741
5.153,0.736204
5.154,0.638716
5.155,0.530898
5.156,0.431151
5.157,0.344961
5.158,0.275235
5.159,0.219712
5.16,0.191305
5.161,0.205186
5.162,0.248119
5.163,0.308807
5.164,0.385312
5.165,0.476021
5.166,0.576091
5.167,0.671642
5.168,0.763965
5.169,0.864681
5.17,0.981215
5.171,1.099362
5.172,1.19104
5.173,1.270128
5.174,1.368584
5.175,1.440247
5.176,1.435728
5.177,1.380851
5.178,1.275292
5.179,1.115503
5.18,0.932794
5.181,0.730071
5.182,0.519923
5.183,0.324624
5.184,0.169354
5.185,0.052498
5.186,-0.000766
5.187,-0.000766
5.188,-0.000766
5.189,0.035066
5.19,0.118996
5.191,0.23327
5.192,0.385312
5.193,0.545747
5.194,0.692625
5.195,0.822071
5.196,0.930534
5.197,1.018015
5.198,1.096457
5.199,1.182647
5.2,1.266254
5.201,1.341468
5.202,1.398282
5.203,1.406675
5.204,1.380205
5.205,1.352766
5.206,1.330815
5.207,1.316289
5.208,1.313707
5.209,1.295952
5.21,1.23817
5.211,1.137776
5.212,0.993804
5.213,0.808836
5.214,0.594169
5.215,0.399516
5.216,0.246505
5.217,0.142884
5.218,0.088975
5.219,0.076063
5.22,0.106729
5.221,0.176456
5.222,0.29428
5.223,0.455684
5.224,0.651951
5.225,0.871137
5.226,1.099362
5.227,1.323068
5.228,1.522563
5.229,1.694942
5.23,1.845371
5.231,1.979013
5.232,2.069399
5.233,2.095869
5.234,2.070367
5.235,1.985146
5.236,1.840851
5.237,1.64749
5.238,1.402479
5.239,1.132289
5.24,0.862744
5.241,0.612569
5.242,0.400484
5.243,0.243277
5.244,0.151599
5.245,0.147403
5.246,0.230687
5.247,0.369817
5.248,0.536709
5.249,0.720064
5.25,0.916976
5.251,1.11518
5.252,1.305959
5.253,1.475433
5.254,1.621019
5.255,1.734648
5.256,1.806634
5.257,1.836009
5.258,1.826971
5.259,1.781132
5.26,1.699784
5.261,1.585188
5.262,1.442184
5.263,1.287882
5.264,1.134871
5.265,0.998324
5.266,0.885341
5.267,0.803025
5.268,0.759446
5.269,0.756541
5.27,0.790436
5.271,0.855643
5.272,0.950548
5.273,1.061271
5.274,1.181678
5.275,1.309187
5.276,1.44057
5.277,1.567756
5.278,1.686549
5.279,1.788234
5.28,1.864093
5.281,1.89702
5.282,1.889272
5.283,1.857314
5.284,1.803728
5.285,1.716248
5.286,1.592935
5.287,1.446058
5.288,1.298857
5.289,1.161341
5.29,1.049327
5.291,0.978955
5.292,0.952162
5.293,0.963138
5.294,1.01866
5.295,1.110015
5.296,1.232036
5.297,1.383433
5.298,1.557103
5.299,1.697525
5.3,1.803728
5.301,1.892178
5.302,1.967715
5.303,2.027434
5.304,2.046802
5.305,2.026788
5.306,1.981595
5.307,1.932206
5.308,1.870227
5.309,1.788879
5.31,1.693005
5.311,1.604879
5.312,1.528374
5.313,1.474465
5.314,1.434114
5.315,1.419587
5.316,1.428626
5.317,1.448963
5.318,1.479307
5.319,1.510619
5.32,1.541609
5.321,1.596809
5.322,1.67396
5.323,1.76822
5.324,1.882171
5.325,2.001609
5.326,2.110073
5.327,2.190129
5.328,2.24081
5.329,2.258564
5.33,2.241133
5.331,2.193357
5.332,2.134929
5.333,2.077469
5.334,2.010648
5.335,1.939953
5.336,1.874423
5.337,1.816318
5.338,1.769511
5.339,1.743041
5.34,1.742072
5.341,1.769834
5.342,1.824711
5.343,1.918971
5.344,2.050353
5.345,2.191743
5.346,2.303757
5.347,2.374129
5.348,2.405119
5.349,2.402536
5.35,2.360571
5.351,2.283743
5.352,2.189161
5.353,2.088122
5.354,1.982564
5.355,1.877651
5.356,1.786942
5.357,1.717862
5.358,1.678156
5.359,1.664921
5.36,1.679125
5.361,1.723995
5.362,1.802437
5.363,1.905413
5.364,2.022915
5.365,2.131378
5.366,2.218859
5.367,2.280192
5.368,2.31215
5.369,2.304726
5.37,2.263729
5.371,2.19949
5.372,2.125567
5.373,2.047448
5.374,1.965778
5.375,1.885076
5.376,1.807279
5.377,1.733679
5.378,1.668149
5.379,1.615209
5.38,1.576472
5.381,1.556781
5.382,1.547419
5.383,1.551616
5.384,1.571307
5.385,1.604556
5.386,1.650395
5.387,1.712697
5.388,1.791784
5.389,1.889595
5.39,2.001932
5.391,2.103939
5.392,2.187547
5.393,2.263083
5.394,2.328291
5.395,2.364768
5.396,2.363799
5.397,2.338298
5.398,2.300852
5.399,2.258564
5.4,2.215954
5.401,2.171406
5.402,2.116529
5.403,2.048739
5.404,1.974171
5.405,1.905413
5.406,1.854409
5.407,1.819546
5.408,1.812767
5.409,1.843756
5.41,1.903476
5.411,1.976108
5.412,2.053581
5.413,2.129441
5.414,2.203364
5.415,2.268571
5.416,2.324417
5.417,2.379294
5.418,2.423842
5.419,2.438045
5.42,2.414157
5.421,2.350564
5.422,2.255659
5.423,2.155911
5.424,2.060038
5.425,1.975462
5.426,1.904767
5.427,1.8557
5.428,1.831167
5.429,1.827293
5.43,1.843434
5.431,1.89476
5.432,1.984178
5.433,2.098452
5.434,2.216922
5.435,2.32474
5.436,2.413512
5.437,2.484529
5.438,2.539084
5.439,2.575561
5.44,2.594607
5.441,2.599772
5.442,2.594607
5.443,2.580726
5.444,2.559098
5.445,2.525849
5.446,2.487757
5.447,2.444501
5.448,2.395112
5.449,2.341848
5.45,2.289231
5.451,2.244683
5.452,2.207238
5.453,2.18335
5.454,2.179799
5.455,2.193357
5.456,2.225638
5.457,2.278578
5.458,2.348627
5.459,2.42707
5.46,2.511645
5.461,2.595575
5.462,2.673049
5.463,2.73987
5.464,2.794102
5.465,2.834453
5.466,2.852853
5.467,2.847042
5.468,2.818312
5.469,2.770214
5.47,2.709203
5.471,2.637217
5.472,2.566845
5.473,2.508094
5.474,2.461933
5.475,2.433526
5.476,2.433526
5.477,2.465484
5.478,2.515842
5.479,2.572979
5.48,2.628824
5.481,2.683379
5.482,2.736642
5.483,2.786032
5.484,2.828642
5.485,2.860923
5.486,2.875449
5.487,2.870284
5.488,2.849625
5.489,2.823477
5.49,2.793456
5.491,2.76279
5.492,2.733091
5.493,2.70307
5.494,2.678537
5.495,2.661105
5.496,2.652712
5.497,2.654003
5.498,2.664333
5.499,2.685316
5.5,2.716628
5.501,2.753751
5.502,2.800558
5.503,2.845751
5.504,2.879969
5.505,2.911604
5.506,2.940334
5.507,2.965835
5.508,2.987141
5.509,3.002313
5.51,3.012965
5.511,3.016839
5.512,3.012965
5.513,3.003604
5.514,2.988755
5.515,2.972614
5.516,2.954537
5.517,2.9342
5.518,2.909344
5.519,2.880614
5.52,2.847688
5.521,2.815084
5.522,2.792488
5.523,2.786032
5.524,2.799267
5.525,2.83187
5.526,2.882228
5.527,2.946467
5.528,3.013611
5.529,3.076558
5.53,3.133695
5.531,3.179857
5.532,3.212783
5.533,3.232152
5.534,3.235703
5.535,3.219885
5.536,3.189541
5.537,3.149513
5.538,3.105934
5.539,3.067197
5.54,3.039758
5.541,3.030074
5.542,3.034593
5.543,3.050088
5.544,3.07333
5.545,3.102706
5.546,3.134664
5.547,3.169527
5.548,3.204713
5.549,3.239899
5.55,3.268952
5.551,3.287675
5.552,3.297682
5.553,3.298004
5.554,3.289611
5.555,3.276699
5.556,3.264432
5.557,3.255071
5.558,3.253134
5.559,3.260236
5.56,3.273148
5.561,3.287675
5.562,3.304138
5.563,3.321892
5.564,3.339324
5.565,3.350622
5.566,3.354496
5.567,3.35385
5.568,3.35159
5.569,3.349331
5.57,3.349008
5.571,3.35385
5.572,3.365471
5.573,3.383871
5.574,3.404208
5.575,3.428741
5.576,3.45618
5.577,3.483296
5.578,3.508475
5.579,3.527521
5.58,3.539787
5.581,3.545598
5.582,3.546243
5.583,3.542047
5.584,3.533331
5.585,3.518805
5.586,3.496854
5.587,3.467801
5.588,3.441331
5.589,3.419057
5.59,3.406791
5.591,3.407113
5.592,3.423254
5.593,3.453275
5.594,3.490398
5.595,3.533331
5.596,3.574973
5.597,3.609836
5.598,3.638566
5.599,3.658903
5.6,3.670524
5.601,3.670847
5.602,3.659872
5.603,3.636952
5.604,3.611773
5.605,3.587886
5.606,3.5711
5.607,3.564966
5.608,3.569163
5.609,3.582721
5.61,3.601766
5.611,3.623717
5.612,3.646637
5.613,3.672138
5.614,3.697963
5.615,3.720559
5.616,3.737991
5.617,3.74251
5.618,3.730889
5.619,3.706033
5.62,3.674721
5.621,3.643408
5.622,3.619843
5.623,3.609514
5.624,3.612742
5.625,3.630819
5.626,3.658903
5.627,3.693444
5.628,3.729598
5.629,3.763493
5.63,3.796419
5.631,3.821921
5.632,3.841289
5.633,3.852265
5.634,3.852911
5.635,3.845163
5.636,3.8287
5.637,3.807717
5.638,3.787381
5.639,3.770272
5.64,3.761879
5.641,3.766721
5.642,3.785121
5.643,3.815465
5.644,3.850974
5.645,3.884223
5.646,3.91037
5.647,3.932967
5.648,3.957177
5.649,3.990749
5.65,4.028841
5.651,4.063704
5.652,4.086946
5.653,4.093725
5.654,4.075648
5.655,4.026904
5.656,3.952981
5.657,3.87357
5.658,3.809977
5.659,3.767689
5.66,3.748966
5.661,3.746707
5.662,3.758651
5.663,3.779956
5.664,3.808686
5.665,3.845809
5.666,3.886805
5.667,3.92877
5.668,3.966862
5.669,3.998174
5.67,4.02303
5.671,4.045304
5.672,4.067255
5.673,4.095016
5.674,4.128265
5.675,4.165065
5.676,4.196701
5.677,4.218006
5.678,4.226076
5.679,4.220588
5.68,4.202834
5.681,4.176364
5.682,4.143437
5.683,4.111479
5.684,4.084364
5.685,4.067578
5.686,4.05402
5.687,4.043044
5.688,4.029163
5.689,4.021739
5.69,4.025935
5.691,4.044335
5.692,4.075325
5.693,4.11729
5.694,4.166357
5.695,4.217683
5.696,4.266427
5.697,4.308392
5.698,4.340673
5.699,4.363269
5.7,4.372631
5.701,4.368757
5.702,4.351003
5.703,4.322918
5.704,4.288701
5.705,4.254483
5.706,4.225108
5.707,4.203479
5.708,4.193472
5.709,4.194764
5.71,4.207353
5.711,4.229627
5.712,4.255774
5.713,4.284504
5.714,4.312266
5.715,4.338736
5.716,4.361655
5.717,4.378118
5.718,4.388125
5.719,4.389094
5.72,4.383929
5.721,4.372631
5.722,4.362301
5.723,4.352939
5.724,4.35068
5.725,4.35649
5.726,4.369725
5.727,4.385866
5.728,4.400392
5.729,4.407171
5.73,4.409431
5.731,4.408139
5.732,4.405234
5.733,4.402329
5.734,4.396841
5.735,4.387157
5.736,4.372308
5.737,4.358104
5.738,4.346806
5.739,4.343255
5.74,4.348097
5.741,4.363915
5.742,4.390062
5.743,4.419115
5.744,4.447199
5.745,4.471087
5.746,4.486582
5.747,4.493361
5.748,4.489487
5.749,4.478834
5.75,4.462048
5.751,4.439775
5.752,4.411368
5.753,4.380055
5.754,4.352939
5.755,4.332602
5.756,4.324855
5.757,4.330666
5.758,4.348743
5.759,4.378441
5.76,4.41395
5.761,4.451073
5.762,4.488519
5.763,4.519185
5.764,4.542105
5.765,4.555017
5.766,4.557599
5.767,4.549206
5.768,4.529192
5.769,4.498526
5.77,4.460111
5.771,4.419761
5.772,4.382315
5.773,4.351325
5.774,4.331634
5.775,4.324209
5.776,4.327438
5.777,4.341641
5.778,4.362301
5.779,4.385866
5.78,4.410722
5.781,4.433641
5.782,4.453655
5.783,4.468182
5.784,4.476252
5.785,4.475283
5.786,4.464631
5.787,4.44849
5.788,4.430413
5.789,4.414918
5.79,4.407494
5.791,4.408139
5.792,4.417178
5.793,4.431382
5.794,4.446231
5.795,4.456883
5.796,4.459466
5.797,4.457206
5.798,4.45075
5.799,4.442034
5.8,4.432996
5.801,4.419438
5.802,4.398132
5.803,4.369403
5.804,4.339381
5.805,4.315494
5.806,4.299999
5.807,4.297416
5.808,4.305487
5.809,4.323887
5.81,4.350034
5.811,4.380701
5.812,4.412982
5.813,4.44268
5.814,4.465599
5.815,4.482385
5.816,4.488519
5.817,4.483676
5.818,4.46689
5.819,4.440097
5.82,4.406203
5.821,4.371339
5.822,4.340673
5.823,4.318722
5.824,4.307746
5.825,4.308069
5.826,4.319045
5.827,4.336153
5.828,4.359718
5.829,4.384252
5.83,4.409108
5.831,4.427185
5.832,4.436547
5.833,4.439452
5.834,4.433318
5.835,4.416532
5.836,4.391031
5.837,4.359718
5.838,4.329052
5.839,4.30355
5.84,4.288378
5.841,4.284181
5.842,4.291283
5.843,4.306455
5.844,4.327115
5.845,4.347452
5.846,4.364883
5.847,4.37715
5.848,4.381992
5.849,4.381346
5.85,4.375859
5.851,4.364238
5.852,4.34842
5.853,4.325501
5.854,4.302904
5.855,4.279339
5.856,4.260616
5.857,4.249641
5.858,4.250287
5.859,4.263199
5.86,4.286118
5.861,4.315494
5.862,4.34261
5.863,4.363915
5.864,4.37715
5.865,4.381346
5.866,4.377473
5.867,4.36682
5.868,4.346483
5.869,4.318722
5.87,4.288055
5.871,4.255774
5.872,4.224462
5.873,4.202188
5.874,4.190244
5.875,4.191213
5.876,4.197992
5.877,4.211872
5.878,4.229627
5.879,4.250609
5.88,4.268041
5.881,4.281276
5.882,4.289992
5.883,4.294511
5.884,4.291606
5.885,4.281599
5.886,4.263199
5.887,4.239634
5.888,4.215423
5.889,4.194441
5.89,4.179592
5.891,4.176364
5.892,4.180883
5.893,4.192504
5.894,4.208644
5.895,4.226722
5.896,4.241894
5.897,4.252546
5.898,4.258357
5.899,4.258357
5.9,4.251578
5.901,4.23802
5.902,4.215101
5.903,4.18863
5.904,4.159578
5.905,4.132462
5.906,4.112125
5.907,4.100504
5.908,4.100504
5.909,4.111802
5.91,4.130848
5.911,4.15635
5.912,4.18282
5.913,4.206062
5.914,4.224139
5.915,4.236083
5.916,4.240925
5.917,4.236083
5.918,4.220911
5.919,4.196055
5.92,4.164743
5.921,4.133107
5.922,4.104378
5.923,4.084686
5.924,4.075002
5.925,4.077907
5.926,4.091142
5.927,4.112125
5.928,4.136336
5.929,4.158286
5.93,4.177978
5.931,4.189922
5.932,4.196055
5.933,4.196378
5.934,4.186371
5.935,4.167971
5.936,4.141178
5.937,4.107606
5.938,4.074034
5.939,4.042399
5.94,4.016897
5.941,4.004307
5.942,4.003984
5.943,4.016897
5.944,4.038525
5.945,4.064995
5.946,4.092756
5.947,4.119872
5.948,4.143114
5.949,4.157641
5.95,4.164097
5.951,4.160223
5.952,4.146988
5.953,4.123423
5.954,4.095339
5.955,4.067255
5.956,4.04143
5.957,4.024967
5.958,4.016897
5.959,4.016251
5.96,4.021093
5.961,4.030455
5.962,4.041753
5.963,4.051114
5.964,4.058862
5.965,4.061767
5.966,4.060153
5.967,4.054342
5.968,4.041107
5.969,4.021416
5.97,3.996237
5.971,3.971381
5.972,3.94943
5.973,3.934258
5.974,3.92877
5.975,3.933612
5.976,3.947493
5.977,3.966862
5.978,3.988812
5.979,4.008504
5.98,4.024321
5.981,4.034006
5.982,4.037556
5.983,4.034974
5.984,4.024321
5.985,4.003016
5.986,3.971058
5.987,3.934581
5.988,3.899072
5.989,3.869374
5.99,3.850005
5.991,3.842903
5.992,3.8471
5.993,3.860981
5.994,3.88164
5.995,3.905528
5.996,3.93103
5.997,3.951044
5.998,3.965248
5.999,3.972995
6.0,3.972026
6.001,3.962342
6.002,3.940391
6.003,3.910693
6.004,3.876153
6.005,3.845163
6.006,3.819016
6.007,3.801584
6.008,3.796419
6.009,3.804489
6.01,3.820307
6.011,3.839998
6.012,3.859689
6.013,3.879381
6.014,3.89423
6.015,3.902946
6.016,3.904237
6.017,3.898749
6.018,3.882609
6.019,3.857107
6.02,3.825149
6.021,3.789963
6.022,3.756714
6.023,3.731858
6.024,3.716363
6.025,3.712489
6.026,3.717977
6.027,3.73218
6.028,3.751226
6.029,3.771886
6.03,3.793191
6.031,3.811591
6.032,3.824826
6.033,3.832574
6.034,3.831605
6.035,3.819016
6.036,3.79771
6.037,3.769303
6.038,3.738637
6.039,3.712489
6.04,3.69183
6.041,3.682145
6.042,3.680854
6.043,3.686987
6.044,3.69764
6.045,3.710875
6.046,3.723788
6.047,3.735731
6.048,3.743156
6.049,3.745093
6.05,3.740896
6.051,3.730889
6.052,3.712166
6.053,3.686987
6.054,3.65858
6.055,3.63437
6.056,3.614356
6.057,3.604026
6.058,3.603703
6.059,3.613387
6.06,3.630173
6.061,3.648896
6.062,3.667942
6.063,3.684405
6.064,3.692798
6.065,3.695703
6.066,3.690861
6.067,3.677626
6.068,3.657612
6.069,3.627591
6.07,3.590468
6.071,3.551731
6.072,3.517191
6.073,3.492335
6.074,3.478454
6.075,3.475549
6.076,3.48491
6.077,3.502019
6.078,3.52397
6.079,3.547857
6.08,3.567549
6.081,3.582721
6.082,3.59305
6.083,3.596601
6.084,3.593696
6.085,3.57917
6.086,3.55625
6.087,3.528166
6.088,3.498791
6.089,3.472966
6.09,3.452952
6.091,3.441008
6.092,3.44004
6.093,3.445527
6.094,3.455857
6.095,3.470061
6.096,3.482973
6.097,3.49298
6.098,3.498145
6.099,3.498791
6.1,3.492657
6.101,3.480713
6.102,3.458763
6.103,3.43197
6.104,3.402271
6.105,3.373864
6.106,3.35385
6.107,3.341906
6.108,3.339969
6.109,3.347394
6.11,3.361597
6.111,3.379997
6.112,3.400012
6.113,3.418089
6.114,3.430678
6.115,3.439071
6.116,3.441977
6.117,3.436489
6.118,3.423254
6.119,3.400657
6.12,3.371282
6.121,3.342552
6.122,3.314468
6.123,3.292839
6.124,3.281218
6.125,3.28025
6.126,3.287352
6.127,3.301232
6.128,3.318664
6.129,3.337064
6.13,3.352882
6.131,3.364826
6.132,3.36999
6.133,3.370959
6.134,3.366117
6.135,3.35159
6.136,3.326089
6.137,3.296713
6.138,3.267338
6.139,3.241836
6.14,3.224727
6.141,3.217302
6.142,3.220853
6.143,3.235057
6.144,3.254425
6.145,3.27799
6.146,3.30091
6.147,3.319632
6.148,3.334804
6.149,3.341261
6.15,3.341261
6.151,3.330285
6.152,3.311239
6.153,3.285092
6.154,3.256685
6.155,3.227632
6.156,3.205359
6.157,3.190187
6.158,3.186959
6.159,3.192446
6.16,3.206004
6.161,3.226018
6.162,3.247001
6.163,3.267338
6.164,3.28251
6.165,3.29058
6.166,3.294131
6.167,3.291225
6.168,3.279282
6.169,3.257008
6.17,3.229246
6.171,3.200517
6.172,3.174692
6.173,3.156937
6.174,3.14919
6.175,3.15145
6.176,3.161134
6.177,3.176952
6.178,3.195029
6.179,3.21246
6.18,3.228924
6.181,3.240867
6.182,3.248938
6.183,3.252166
6.184,3.247324
6.185,3.232152
6.186,3.211169
6.187,3.18599
6.188,3.164362
6.189,3.145639
6.19,3.134664
6.191,3.134341
6.192,3.144671
6.193,3.159197
6.194,3.177274
6.195,3.195674
6.196,3.212138
6.197,3.222467
6.198,3.226018
6.199,3.220531
6.2,3.210201
6.201,3.194706
6.202,3.170818
6.203,3.142088
6.204,3.11239
6.205,3.085274
6.206,3.068488
6.207,3.062032
6.208,3.067843
6.209,3.084629
6.21,3.108516
6.211,3.135309
6.212,3.162748
6.213,3.186313
6.214,3.205359
6.215,3.219239
6.216,3.225695
6.217,3.221822
6.218,3.209878
6.219,3.185667
6.22,3.154355
6.221,3.12046
6.222,3.089471
6.223,3.066551
6.224,3.05945
6.225,3.061386
6.226,3.069779
6.227,3.080755
6.228,3.093022
6.229,3.105611
6.23,3.115295
6.231,3.12272
6.232,3.126271
6.233,3.125302
6.234,3.118846
6.235,3.104643
6.236,3.087211
6.237,3.067843
6.238,3.051057
6.239,3.0446
6.24,3.04912
6.241,3.063969
6.242,3.086565
6.243,3.109485
6.244,3.134664
6.245,3.15952
6.246,3.176306
6.247,3.184376
6.248,3.180825
6.249,3.170173
6.25,3.149513
6.251,3.118201
6.252,3.079786
6.253,3.037822
6.254,2.994888
6.255,2.954214
6.256,2.925484
6.257,2.913218
6.258,2.917092
6.259,2.933877
6.26,2.963899
6.261,3.002313
6.262,3.042341
6.263,3.076236
6.264,3.103997
6.265,3.126271
6.266,3.142411
6.267,3.148544
6.268,3.144348
6.269,3.126271
6.27,3.097864
6.271,3.059772
6.272,3.02039
6.273,2.98359
6.274,2.955183
6.275,2.939365
6.276,2.933555
6.277,2.934846
6.278,2.943562
6.279,2.957442
6.28,2.971646
6.281,2.985204
6.282,2.997471
6.283,3.008446
6.284,3.016839
6.285,3.019421
6.286,3.014579
6.287,3.002313
6.288,2.984881
6.289,2.969064
6.29,2.956474
6.291,2.950986
6.292,2.950986
6.293,2.95712
6.294,2.971
6.295,2.987464
6.296,3.003281
6.297,3.017485
6.298,3.026523
6.299,3.032657
6.3,3.032334
6.301,3.022972
6.302,3.003604
6.303,2.970678
6.304,2.931295
6.305,2.889976
6.306,2.853498
6.307,2.829611
6.308,2.817667
6.309,2.813793
6.31,2.818635
6.311,2.827351
6.312,2.841232
6.313,2.858986
6.314,2.88126
6.315,2.902565
6.316,2.922902
6.317,2.938074
6.318,2.945821
6.319,2.94453
6.32,2.933877
6.321,2.914186
6.322,2.893527
6.323,2.878355
6.324,2.87093
6.325,2.867702
6.326,2.86867
6.327,2.871253
6.328,2.875772
6.329,2.879646
6.33,2.876095
6.331,2.867702
6.332,2.855435
6.333,2.842523
6.334,2.827028
6.335,2.807983
6.336,2.784418
6.337,2.762144
6.338,2.746972
6.339,2.744067
6.34,2.754719
6.341,2.782158
6.342,2.819604
6.343,2.859309
6.344,2.900628
6.345,2.93646
6.346,2.960671
6.347,2.970355
6.348,2.969064
6.349,2.953246
6.35,2.914832
6.351,2.858341
6.352,2.792165
6.353,2.724375
6.354,2.662719
6.355,2.614298
6.356,2.581049
6.357,2.567168
6.358,2.577175
6.359,2.605582
6.36,2.646256
6.361,2.695646
6.362,2.750846
6.363,2.80314
6.364,2.845105
6.365,2.872544
6.366,2.884811
6.367,2.884488
6.368,2.870284
6.369,2.839618
6.37,2.792488
6.371,2.732768
6.372,2.666593
6.373,2.602031
6.374,2.546186
6.375,2.501961
6.376,2.470649
6.377,2.454508
6.378,2.454508
6.379,2.470649
6.38,2.503252
6.381,2.554256
6.382,2.613975
6.383,2.675954
6.384,2.73987
6.385,2.79959
6.386,2.851884
6.387,2.893849
6.388,2.920642
6.389,2.929681
6.39,2.926453
6.391,2.925162
6.392,2.927744
6.393,2.928067
6.394,2.917092
6.395,2.886425
6.396,2.828642
6.397,2.752782
6.398,2.671758
6.399,2.589119
6.4,2.498733
6.401,2.406087
6.402,2.32248
6.403,2.256305
6.404,2.208852
6.405,2.178508
6.406,2.174311
6.407,2.204655
6.408,2.264052
6.409,2.347013
6.41,2.441273
6.411,2.538761
6.412,2.626565
6.413,2.700165
6.414,2.754719
6.415,2.786677
6.416,2.809274
6.417,2.822832
6.418,2.830256
6.419,2.831548
6.42,2.823477
6.421,2.802495
6.422,2.769891
6.423,2.735028
6.424,2.706621
6.425,2.683379
6.426,2.672403
6.427,2.673372
6.428,2.674663
6.429,2.671112
6.43,2.661751
6.431,2.644319
6.432,2.612361
6.433,2.569751
6.434,2.513582
6.435,2.439014
6.436,2.347013
6.437,2.254045
6.438,2.172697
6.439,2.107813
6.44,2.066171
6.441,2.053259
6.442,2.069399
6.443,2.123631
6.444,2.22015
6.445,2.349919
6.446,2.48808
6.447,2.622691
6.448,2.750846
6.449,2.888039
6.45,3.031043
6.451,3.145316
6.452,3.191478
6.453,3.164362
6.454,3.085274
6.455,2.964544
6.456,2.799267
6.457,2.610424
6.458,2.413835
6.459,2.224347
6.46,2.057132
6.461,1.93156
6.462,1.853118
6.463,1.816963
6.464,1.814058
6.465,1.834718
6.466,1.884107
6.467,1.948023
6.468,2.017427
6.469,2.090381
6.47,2.170438
6.471,2.267603
6.472,2.383813
6.473,2.525849
6.474,2.679828
6.475,2.825737
6.476,2.94227
6.477,3.015871
6.478,3.062032
6.479,3.068811
6.48,3.009737
6.481,2.907407
6.482,2.787
6.483,2.660137
6.484,2.525849
6.485,2.375743
6.486,2.227897
6.487,2.091673
6.488,1.96836
6.489,1.893146
6.49,1.884753
6.491,1.925104
6.492,2.005806
6.493,2.137511
6.494,2.286003
6.495,2.425778
6.496,2.552965
6.497,2.635603
6.498,2.669498
6.499,2.654326
6.5,2.588796
6.501,2.476459
6.502,2.332487
6.503,2.156234
6.504,1.966746
6.505,1.789202
6.506,1.638451
6.507,1.512879
6.508,1.447349
6.509,1.465749
6.51,1.580991
6.511,1.770802
6.512,2.001609
6.513,2.222087
6.514,2.434817
6.515,2.655617
6.516,2.878677
6.517,3.083983
6.518,3.249906
6.519,3.33771
6.52,3.330608
6.521,3.247646
6.522,3.080755
6.523,2.823155
6.524,2.508417
6.525,2.173666
6.526,1.859251
6.527,1.576472
6.528,1.314675
6.529,1.086127
6.53,0.91633
6.531,0.837565
6.532,0.881144
6.533,1.049004
6.534,1.321777
6.535,1.638774
6.536,1.950929
6.537,2.261792
6.538,2.52488
6.539,2.715982
6.54,2.823477
6.541,2.854467
6.542,2.810565
6.543,2.697905
6.544,2.557807
6.545,2.43514
6.546,2.348627
6.547,2.289876
6.548,2.221764
6.549,2.104908
6.55,1.958999
6.551,1.8557
6.552,1.790816
6.553,1.776613
6.554,1.816641
6.555,1.870872
6.556,1.954802
6.557,2.087476
6.558,2.213048
6.559,2.276319
6.56,2.316024
6.561,2.368642
6.562,2.398663
6.563,2.401245
6.564,2.43288
6.565,2.500347
6.566,2.541021
6.567,2.498733
6.568,2.398017
6.569,2.275673
6.57,2.173989
6.571,2.111687
6.572,2.068753
6.573,2.065525
6.574,2.095869
6.575,2.11782
6.576,2.086185
6.577,2.028402
6.578,1.968037
6.579,1.906058
6.58,1.825356
6.581,1.718507
6.582,1.58551
6.583,1.431531
6.584,1.287559
6.585,1.172317
6.586,1.085804
6.587,1.018983
6.588,0.987348
6.589,1.006717
6.59,1.085804
6.591,1.227194
6.592,1.436373
6.593,1.693005
6.594,1.942858
6.595,2.165273
6.596,2.336684
6.597,2.454508
6.598,2.499056
6.599,2.464515
6.6,2.356052
6.601,2.207883
6.602,2.053904
6.603,1.917679
6.604,1.789848
6.605,1.689454
6.606,1.641679
6.607,1.643293
6.608,1.681062
6.609,1.72109
6.61,1.7453
6.611,1.74982
6.612,1.749174
6.613,1.734325
6.614,1.676542
6.615,1.575503
6.616,1.460261
6.617,1.358577
6.618,1.324682
6.619,1.3405
6.62,1.394408
6.621,1.496093
6.622,1.613595
6.623,1.733034
6.624,1.840528
6.625,1.945118
6.626,2.063911
6.627,2.184318
6.628,2.304403
6.629,2.373484
6.63,2.351533
6.631,2.268894
6.632,2.137834
6.633,1.979336
6.634,1.824065
6.635,1.659756
6.636,1.518367
6.637,1.389244
6.638,1.245271
6.639,1.113566
6.64,0.986703
6.641,0.933762
6.642,0.998969
6.643,1.156176
6.644,1.365033
6.645,1.603588
6.646,1.834718
6.647,2.013876
6.648,2.106199
6.649,2.17528
6.65,2.231771
6.651,2.253076
6.652,2.214017
6.653,2.10975
6.654,1.990634
6.655,1.898634
6.656,1.788234
6.657,1.663953
6.658,1.54516
6.659,1.420556
6.66,1.305959
6.661,1.219447
6.662,1.182969
6.663,1.207826
6.664,1.282717
6.665,1.327587
6.666,1.318226
6.667,1.264317
6.668,1.216219
6.669,1.25205
6.67,1.353735
6.671,1.491573
6.672,1.694297
6.673,1.955125
6.674,2.20175
6.675,2.35702
6.676,2.403828
6.677,2.363154
6.678,2.217245
6.679,1.974494
6.68,1.679447
6.681,1.365033
6.682,1.080962
6.683,0.827558
6.684,0.636779
6.685,0.471179
6.686,0.348512
6.687,0.297508
6.688,0.362393
6.689,0.621607
6.69,1.025439
6.691,1.479952
6.692,1.894114
6.693,2.235645
6.694,2.471617
6.695,2.599772
6.696,2.603
6.697,2.505512
6.698,2.35702
6.699,2.181413
6.7,1.926395
6.701,1.599068
6.702,1.260443
6.703,0.957004
6.704,0.720064
6.705,0.547684
6.706,0.403712
6.707,0.307838
6.708,0.286856
6.709,0.35174
6.71,0.476667
6.711,0.645818
6.712,0.85758
6.713,1.054169
6.714,1.22332
6.715,1.439924
6.716,1.69236
6.717,1.879265
6.718,1.918648
6.719,1.860542
6.72,1.799855
6.721,1.742395
6.722,1.641033
6.723,1.495447
6.724,1.325973
6.725,1.141973
6.726,0.971853
6.727,0.84273
6.728,0.788176
6.729,0.771713
6.73,0.734913
6.731,0.719418
6.732,0.782688
6.733,0.909229
6.734,1.048036
6.735,1.219124
6.736,1.366324
6.737,1.447994
6.738,1.463489
6.739,1.415714
6.74,1.325005
6.741,1.201047
6.742,1.049327
6.743,0.893734
6.744,0.761706
6.745,0.675516
6.746,0.649691
6.747,0.641621
6.748,0.602239
6.749,0.522182
6.75,0.446
6.751,0.406295
6.752,0.421467
6.753,0.497972
6.754,0.640007
6.755,0.841762
6.756,1.056429
6.757,1.281426
6.758,1.513524
6.759,1.733679
6.76,1.959322
6.761,2.168824
6.762,2.275673
6.763,2.226606
6.764,2.017427
6.765,1.693328
6.766,1.324682
6.767,0.972499
6.768,0.652274
6.769,0.358196
6.77,0.081873
6.771,-0.000766
6.772,-0.001088
6.773,-0.001411
6.774,-0.00012
6.775,0.095108
6.776,0.265228
6.777,0.499909
6.778,0.876948
6.779,1.381496
6.78,1.882171
6.781,2.255013
6.782,2.455154
6.783,2.473231
6.784,2.326677
6.785,2.030662
6.786,1.638128
6.787,1.149398
6.788,0.598042
6.789,0.050561
6.79,-0.000766
6.791,-0.001411
6.792,-0.000766
6.793,-0.001734
6.794,-0.001411
6.795,-0.000766
6.796,-0.001088
6.797,-0.000766
6.798,-0.000766
6.799,-0.000766
6.8,0.042491
6.801,0.143206
6.802,0.286856
6.803,0.43793
6.804,0.601916
6.805,0.78753
6.806,0.958941
6.807,1.139713
6.808,1.343082
6.809,1.522886
6.81,1.624893
6.811,1.662016
6.812,1.652654
6.813,1.59584
6.814,1.496416
6.815,1.347279
6.816,1.152303
6.817,0.938281
6.818,0.692948
6.819,0.403067
6.82,0.083487
6.821,-0.001411
6.822,-0.001411
6.823,-0.000766
6.824,-0.001411
6.825,-0.001088
6.826,-0.000766
6.827,-0.001411
6.828,-0.001088
6.829,-0.001088
6.83,-0.001411
6.831,-0.000766
6.832,-0.000766
6.833,-0.000443
6.834,-0.000443
6.835,-0.001411
6.836,-0.000766
6.837,-0.00012
6.838,0.044427
6.839,0.086715
6.84,0.105438
6.841,0.111249
6.842,0.140624
6.843,0.19647
6.844,0.234238
6.845,0.255221
6.846,0.283305
6.847,0.299122
6.848,0.258772
6.849,0.189045
6.85,0.139978
6.851,0.12287
6.852,0.082519
6.853,0.011501
6.854,-0.001088
6.855,-0.000766
6.856,-0.000766
6.857,-0.000766
6.858,-0.001734
6.859,-0.000443
6.86,0.072189
6.861,0.248765
6.862,0.399516
6.863,0.487319
6.864,0.521214
6.865,0.495389
6.866,0.392091
6.867,0.205831
6.868,-0.000766
6.869,-0.001088
6.87,-0.000443
6.871,-0.001088
6.872,-0.001411
6.873,-0.000766
6.874,-0.001088
6.875,-0.000766
6.876,-0.001088
6.877,-0.001411
6.878,-0.001088
6.879,-0.000766
6.88,-0.001411
6.881,-0.000766
6.882,-0.001411
6.883,-0.001411
6.884,-0.000766
6.885,-0.001411
6.886,0.026027
6.887,0.049269
6.888,0.070898
6.889,0.146757
6.89,0.253929
6.891,0.325593
6.892,0.30913
6.893,0.221326
6.894,0.108989
6.895,-0.000443
6.896,-0.001088
6.897,-0.001088
6.898,-0.001088
6.899,-0.001088
6.9,-0.001088
6.901,-0.001411
6.902,-0.001411
6.903,-0.001088
6.904,-0.000443
6.905,-0.000766
6.906,-0.001411
6.907,-0.001411
6.908,-0.000766
6.909,0.026027
6.91,0.077354
6.911,0.123838
6.912,0.135459
6.913,0.10221
6.914,0.043782
6.915,-0.001088
6.916,-0.001088
6.917,-0.001088
6.918,0.014083
6.919,0.066378
6.92,0.062827
6.921,0.033452
6.922,-0.00012
6.923,-0.001088
6.924,-0.000766
6.925,-0.001088
6.926,0.015697
6.927,0.049592
6.928,0.089943
6.929,0.12642
6.93,0.116413
6.931,0.008919
6.932,-0.001088
6.933,-0.000766
6.934,-0.001088
6.935,-0.001088
6.936,-0.001411
6.937,-0.001088
6.938,-0.001088
6.939,-0.001088
6.94,-0.001088
6.941,-0.000766
6.942,-0.001088
6.943,-0.000766
6.944,-0.001411
6.945,-0.001088
6.946,-0.001088
6.947,-0.001088
6.948,-0.001411
6.949,-0.001088
6.95,-0.001088
6.951,-0.001088
6.952,-0.000443
6.953,0.014406
6.954,0.026673
6.955,0.021508
6.956,0.004076
6.957,-0.001088
6.958,-0.001088
6.959,-0.000443
6.96,-0.001088
6.961,-0.000766
6.962,-0.001088
6.963,-0.001088
6.964,-0.000766
6.965,-0.000443
6.966,-0.000766
6.967,-0.001088
6.968,-0.000766
6.969,-0.001088
6.97,-0.001411
6.971,-0.002057
6.972,-0.00012
6.973,-0.001088
6.974,-0.001088
6.975,-0.001411
6.976,-0.001088
6.977,-0.001411
6.978,-0.001411
6.979,-0.001088
6.98,-0.001088
6.981,-0.001088
6.982,-0.001088
6.983,-0.001411
6.984,-0.000443
6.985,-0.001411
6.986,-0.001088
6.987,-0.001088
6.988,-0.001088
6.989,-0.001088
6.99,-0.001088
6.991,-0.000766
6.992,-0.001411
6.993,-0.001088
6.994,-0.001088
6.995,-0.000766
6.996,-0.000766
6.997,-0.001088
6.998,-0.000443
6.999,-0.001411
7.0,-0.000766
7.001,-0.001088
7.002,-0.001088
7.003,-0.000766
7.004,-0.001411
7.005,-0.001411
7.006,-0.001088
7.007,-0.001411
7.008,-0.001411
7.009,-0.001088
7.01,-0.001088
7.011,-0.001411
7.012,-0.001088
7.013,-0.001411
7.014,-0.001088
7.015,-0.001088
7.016,-0.000766
7.017,-0.000766
7.018,-0.001088
7.019,-0.001734
7.02,-0.000443
7.021,-0.001088
7.022,-0.000443
7.023,-0.001088
7.024,-0.001088
7.025,-0.001411
7.026,-0.001411
7.027,-0.001088
7.028,-0.001088
7.029,-0.000766
7.03,-0.000766
7.031,-0.001088
7.032,-0.001411
7.033,-0.000443
7.034,-0.001088
7.035,-0.001088
7.036,-0.001411
7.037,-0.000766
7.038,-0.000766
7.039,-0.000443
7.04,0.001171
7.041,0.055403
7.042,0.111894
7.043,0.135459
7.044,0.131585
7.045,0.115445
7.046,0.085747
7.047,0.045073
7.048,0.00569
7.049,-0.000443
7.05,-0.000766
7.051,-0.000766
7.052,0.005368
7.053,0.032483
7.054,0.07122
7.055,0.118027
7.056,0.179361
7.057,0.256189
7.058,0.334631
7.059,0.398547
7.06,0.45407
7.061,0.489902
7.062,0.502814
7.063,0.494098
7.064,0.473439
7.065,0.442449
7.066,0.399838
7.067,0.337537
7.068,0.260063
7.069,0.162252
7.07,0.049592
7.071,-0.001088
7.072,-0.000443
7.073,-0.000766
7.074,-0.000766
7.075,-0.000443
7.076,0.016666
7.077,0.069606
7.078,0.153213
7.079,0.274589
7.08,0.418561
7.081,0.545747
7.082,0.644204
7.083,0.734913
7.084,0.839179
7.085,0.946997
7.086,1.00478
7.087,1.012527
7.088,0.981538
7.089,0.932471
7.09,0.878562
7.091,0.807867
7.092,0.728457
7.093,0.640653
7.094,0.535095
7.095,0.43341
7.096,0.371109
7.097,0.332694
7.098,0.283628
7.099,0.254898
7.1,0.271038
7.101,0.335277
7.102,0.407586
7.103,0.472147
7.104,0.538968
7.105,0.610309
7.106,0.690688
7.107,0.791404
7.108,0.88986
7.109,0.970885
7.11,1.032541
7.111,1.069664
7.112,1.070955
7.113,1.025117
7.114,0.959264
7.115,0.894702
7.116,0.819811
7.117,0.717481
7.118,0.609018
7.119,0.51379
7.12,0.435347
7.121,0.386281
7.122,0.376273
7.123,0.407909
7.124,0.475375
7.125,0.548653
7.126,0.639039
7.127,0.767516
7.128,0.925369
7.129,1.092261
7.13,1.234296
7.131,1.357286
7.132,1.448317
7.133,1.494802
7.134,1.503195
7.135,1.459938
7.136,1.376008
7.137,1.27045
7.138,1.142941
7.139,1.003811
7.14,0.869201
7.141,0.742983
7.142,0.634842
7.143,0.553495
7.144,0.508947
7.145,0.513144
7.146,0.573509
7.147,0.681004
7.148,0.809158
7.149,0.94506
7.15,1.089033
7.151,1.228485
7.152,1.3589
7.153,1.465103
7.154,1.540317
7.155,1.595518
7.156,1.635223
7.157,1.665244
7.158,1.680093
7.159,1.686549
7.16,1.678802
7.161,1.658142
7.162,1.612949
7.163,1.56356
7.164,1.519658
7.165,1.475756
7.166,1.423461
7.167,1.350507
7.168,1.244303
7.169,1.130029
7.17,1.036415
7.171,0.971531
7.172,0.932794
7.173,0.92666
7.174,0.955067
7.175,1.007039
7.176,1.078703
7.177,1.174576
7.178,1.288205
7.179,1.41184
7.18,1.530956
7.181,1.630704
7.182,1.711728
7.183,1.766283
7.184,1.789525
7.185,1.780809
7.186,1.748205
7.187,1.698816
7.188,1.630058
7.189,1.551616
7.19,1.489637
7.191,1.450577
7.192,1.435405
7.193,1.437665
7.194,1.451223
7.195,1.483503
7.196,1.535475
7.197,1.596809
7.198,1.656205
7.199,1.708177
7.2,1.752079
7.201,1.783714
7.202,1.80276
7.203,1.812444
7.204,1.813413
7.205,1.810185
7.206,1.816318
7.207,1.822451
7.208,1.827616
7.209,1.844402
7.21,1.88443
7.211,1.948992
7.212,2.037764
7.213,2.147841
7.214,2.248234
7.215,2.326031
7.216,2.368319
7.217,2.374129
7.218,2.336684
7.219,2.26728
7.22,2.169469
7.221,2.054873
7.222,1.928655
7.223,1.797272
7.224,1.686872
7.225,1.620051
7.226,1.605202
7.227,1.618114
7.228,1.652977
7.229,1.702367
7.23,1.765637
7.231,1.846016
7.232,1.945118
7.233,2.056487
7.234,2.16269
7.235,2.255659
7.236,2.328613
7.237,2.38575
7.238,2.41674
7.239,2.425456
7.24,2.418031
7.241,2.407378
7.242,2.391884
7.243,2.35702
7.244,2.306662
7.245,2.257596
7.246,2.211111
7.247,2.167532
7.248,2.129441
7.249,2.101357
7.25,2.085862
7.251,2.082957
7.252,2.084894
7.253,2.095224
7.254,2.113301
7.255,2.142353
7.256,2.183673
7.257,2.23629
7.258,2.297624
7.259,2.36154
7.26,2.428684
7.261,2.504866
7.262,2.579758
7.263,2.623337
7.264,2.622368
7.265,2.585245
7.266,2.519715
7.267,2.43288
7.268,2.329582
7.269,2.218859
7.27,2.111364
7.271,2.020009
7.272,1.955771
7.273,1.928655
7.274,1.942858
7.275,2.000964
7.276,2.100066
7.277,2.237904
7.278,2.402214
7.279,2.575884
7.28,2.730832
7.281,2.851562
7.282,2.921288
7.283,2.943239
7.284,2.917737
7.285,2.853498
7.286,2.758916
7.287,2.635603
7.288,2.497119
7.289,2.367027
7.29,2.259533
7.291,2.176571
7.292,2.12589
7.293,2.108136
7.294,2.123308
7.295,2.172375
7.296,2.257273
7.297,2.362185
7.298,2.478073
7.299,2.589765
7.3,2.693709
7.301,2.787323
7.302,2.87093
7.303,2.933877
7.304,2.985204
7.305,3.025232
7.306,3.042664
7.307,3.032657
7.308,3.01006
7.309,2.972292
7.31,2.927421
7.311,2.866411
7.312,2.782158
7.313,2.687575
7.314,2.593638
7.315,2.511
7.316,2.443533
7.317,2.390915
7.318,2.363154
7.319,2.363154
7.32,2.385428
7.321,2.422873
7.322,2.47775
7.323,2.549091
7.324,2.632698
7.325,2.727603
7.326,2.826705
7.327,2.925807
7.328,3.014257
7.329,3.088502
7.33,3.140797
7.331,3.168236
7.332,3.174046
7.333,3.159197
7.334,3.125302
7.335,3.07333
7.336,3.002958
7.337,2.921934
7.338,2.831548
7.339,2.749554
7.34,2.690158
7.341,2.654972
7.342,2.638831
7.343,2.633344
7.344,2.642705
7.345,2.665947
7.346,2.702747
7.347,2.751168
7.348,2.806369
7.349,2.866088
7.35,2.923225
7.351,2.972614
7.352,3.010706
7.353,3.034916
7.354,3.045569
7.355,3.0446
7.356,3.033302
7.357,3.016839
7.358,2.993597
7.359,2.968741
7.36,2.946467
7.361,2.924516
7.362,2.90773
7.363,2.896432
7.364,2.891913
7.365,2.890621
7.366,2.889653
7.367,2.886102
7.368,2.882228
7.369,2.879969
7.37,2.887393
7.371,2.906116
7.372,2.937751
7.373,2.980362
7.374,3.033948
7.375,3.095927
7.376,3.158874
7.377,3.212783
7.378,3.254748
7.379,3.277022
7.38,3.278959
7.381,3.262818
7.382,3.223436
7.383,3.162748
7.384,3.087857
7.385,3.013611
7.386,2.94679
7.387,2.896432
7.388,2.864474
7.389,2.851239
7.39,2.85253
7.391,2.865765
7.392,2.888362
7.393,2.919674
7.394,2.957765
7.395,2.997148
7.396,3.032657
7.397,3.064292
7.398,3.098187
7.399,3.129822
7.4,3.157906
7.401,3.173078
7.402,3.174046
7.403,3.164362
7.404,3.143702
7.405,3.117232
7.406,3.089471
7.407,3.066229
7.408,3.050088
7.409,3.040404
7.41,3.03653
7.411,3.03879
7.412,3.045892
7.413,3.055576
7.414,3.064937
7.415,3.075913
7.416,3.092376
7.417,3.112067
7.418,3.130467
7.419,3.146608
7.42,3.15726
7.421,3.166299
7.422,3.176952
7.423,3.190832
7.424,3.21472
7.425,3.247969
7.426,3.290257
7.427,3.334482
7.428,3.370313
7.429,3.387422
7.43,3.384194
7.431,3.362889
7.432,3.327703
7.433,3.281218
7.434,3.23086
7.435,3.179534
7.436,3.141443
7.437,3.124011
7.438,3.125948
7.439,3.149836
7.44,3.194383
7.441,3.260236
7.442,3.347394
7.443,3.445527
7.444,3.538496
7.445,3.605317
7.446,3.636629
7.447,3.633401
7.448,3.599184
7.449,3.538819
7.45,3.462959
7.451,3.375155
7.452,3.274117
7.453,3.170818
7.454,3.08366
7.455,3.03072
7.456,3.010706
7.457,3.023941
7.458,3.066229
7.459,3.135309
7.46,3.224081
7.461,3.326734
7.462,3.438748
7.463,3.55625
7.464,3.670201
7.465,3.762847
7.466,3.820953
7.467,3.827086
7.468,3.779633
7.469,3.693444
7.47,3.588854
7.471,3.477808
7.472,3.375155
7.473,3.287029
7.474,3.223759
7.475,3.188895
7.476,3.179857
7.477,3.194706
7.478,3.228278
7.479,3.277668
7.48,3.339969
7.481,3.407113
7.482,3.471998
7.483,3.537528
7.484,3.601121
7.485,3.651156
7.486,3.683759
7.487,3.702482
7.488,3.71023
7.489,3.716363
7.49,3.727016
7.491,3.746384
7.492,3.772209
7.493,3.798679
7.494,3.815788
7.495,3.807717
7.496,3.771886
7.497,3.720237
7.498,3.664068
7.499,3.609191
7.5,3.55851
7.501,3.512671
7.502,3.465864
7.503,3.428096
7.504,3.412924
7.505,3.425513
7.506,3.470384
7.507,3.539142
7.508,3.616615
7.509,3.698931
7.51,3.785121
7.511,3.863886
7.512,3.926511
7.513,3.973318
7.514,4.008827
7.515,4.032714
7.516,4.034328
7.517,4.003339
7.518,3.943619
7.519,3.878735
7.52,3.811591
7.521,3.742833
7.522,3.667942
7.523,3.594342
7.524,3.544952
7.525,3.528812
7.526,3.548826
7.527,3.601443
7.528,3.680208
7.529,3.76543
7.53,3.838384
7.531,3.896167
7.532,3.944265
7.533,3.978805
7.534,3.995269
7.535,3.989135
7.536,3.966539
7.537,3.938132
7.538,3.913276
7.539,3.899718
7.54,3.899718
7.541,3.906497
7.542,3.916504
7.543,3.924574
7.544,3.926511
7.545,3.923283
7.546,3.909402
7.547,3.884223
7.548,3.857753
7.549,3.829991
7.55,3.797065
7.551,3.761556
7.552,3.729598
7.553,3.706033
7.554,3.69183
7.555,3.689893
7.556,3.700868
7.557,3.729275
7.558,3.770595
7.559,3.819984
7.56,3.872279
